IESNA:LM-63-1995
[TEST]     18646
[MANUFAC]COOPER LIGHTING - SHAPER                             
[LUMCAT]638-14-CF2/13-RB                                                                
[LUMINAIRE]FLUORESCENT WALL MOUNT LUMINAIRE WITH WHITE INTERIOR AND NO LENS                                                 
[LAMP]TWO SYLVANIA 13 WATT CPFL LAMPS                                                 
[LAMPCAT]CF13DS/E/830. LUMEN RATING = 1600 LMS.                                          
[OTHER]ONE UNIVERSAL CT213UNVSE BALLAST OPERATING AT 120 VAC AND 26 WATTS              
TILT=NONE
1
      1600
1
73
17
1
1
  0.00
  0.00
  0.00
1
1
   26.0000
0 2.5 5 7.5 10 12.5 15 17.5 20 22.5 25 27.5 30 32.5 35 37.5
40 42.5 45 47.5 50 52.5 55 57.5 60 62.5 65 67.5 70 72.5 75
77.5 80 82.5 85 87.5 90 92.5 95 97.5 100 102.5 105 107.5 110
112.5 115 117.5 120 122.5 125 127.5 130 132.5 135 137.5 140
142.5 145 147.5 150 152.5 155 157.5 160 162.5 165 167.5 170
172.5 175 177.5 180
0 22.5 45 67.5 90 112.5 135 157.5 180 202.5 225 247.5
270 292.5 315 337.5 360
       0.5        0.5        0.5        0.5        0.5        0.5        0.5        0.5        0.5        0.5
       0.5        0.5        0.5        0.5        0.5        0.5        0.5        0.5        0.5        0.5
       0.5        0.5        0.5        0.5        0.5        0.5        0.5        0.5        0.5        0.5
       0.5        0.5        0.5        0.5        0.5        0.5        0.7        1.7        3.2        5.3
      10.6       19.3       29.0       39.3       50.7       62.4       74.7       87.6      100.2      112.6
     124.4      136.3      147.4      158.8      169.7      180.3      190.6      200.0      209.1      217.5
     225.6      232.5      239.0      244.6      249.4      253.7      257.0      260.2      262.7      264.9
     266.4      267.2      267.8
       0.5        0.5        0.5        0.5        0.5        0.5        0.5        0.5        0.7        0.7
       0.9        1.1        1.3        1.3        1.7        1.9        2.4        2.5        2.8        2.8
       2.8        2.8        2.5        2.5        2.4        2.1        1.9        1.7        1.7        1.5
       1.3        1.1        1.1        1.1        1.1        1.1        1.1        1.5        2.1        3.1
       6.2       12.6       26.8       45.8       66.4       85.7      103.0      119.2      132.9      145.4
     156.3      166.4      175.6      185.2      194.8      204.5      214.6      223.9      232.9      241.1
     249.2      256.2      262.6      267.7      271.6      274.5      276.1      276.3      275.9      274.5
     272.0      269.3      267.8
       0.5        0.5        0.5        0.5        0.5        0.5        0.5        0.9        1.3        2.1
       3.1        4.0        4.0        4.0        3.8        3.4        2.9        2.5        2.1        1.7
       1.5        1.5        1.3        1.3        1.3        1.1        1.1        1.1        1.1        0.9
       0.9        0.9        1.1        1.1        1.1        1.3        1.7        1.9        2.5        3.4
       4.8        7.7       15.9       33.2       55.6       82.0      108.3      131.4      148.7      163.5
     175.2      185.6      194.4      202.0      209.4      216.9      224.5      232.3      239.9      247.3
     254.9      261.5      267.9      273.4      278.2      282.1      284.6      286.0      286.0      283.1
     278.6      272.2      267.8
       0.5        0.5        0.5        0.5        0.5        0.5        0.9        1.5        2.5        4.2
       4.6        4.2        3.8        3.1        2.5        1.9        1.5        1.3        1.1        0.9
       0.7        0.7        0.5        0.5        0.5        0.7        0.7        0.7        0.9        1.1
       1.1        1.3        1.5        1.5        1.7        1.9        2.4        2.8        3.5        4.6
       6.1        8.5       12.0       23.5       49.5       75.4      102.4      130.6      156.3      174.9
     188.0      198.1      205.5      211.9      218.0      224.5      231.3      237.6      244.4      251.0
     257.8      264.6      271.2      277.0      281.9      285.8      288.3      289.7      289.7      288.0
     282.3      274.3      267.8
       0.5        0.5        0.5        0.5        0.5        0.5        0.7        1.5        3.4        5.0
       4.6        4.2        3.5        2.8        2.1        1.5        1.1        0.9        0.9        0.7
       0.5        0.5        0.7        0.7        0.7        0.9        0.9        1.1        1.1        1.3
       1.3        1.5        1.7        1.9        2.1        2.4        2.8        3.4        4.4        5.6
       7.1        9.8       13.2       19.0       45.5       78.1       98.6      125.9      153.0      179.3
     191.7      199.3      205.3      211.0      216.0      221.8      228.8      236.2      243.6      250.2
     256.7      263.0      269.3      275.3      280.6      285.0      287.6      288.9      289.3      287.6
     281.5      272.6      267.8
       0.5        0.5        0.5        0.5        0.5        0.5        0.9        1.5        2.5        4.2
       4.6        4.2        3.8        3.1        2.5        1.9        1.5        1.3        1.1        0.9
       0.7        0.7        0.5        0.5        0.5        0.7        0.7        0.7        0.9        1.1
       1.1        1.3        1.5        1.5        1.7        1.9        2.4        2.8        3.5        4.6
       6.1        8.5       12.0       23.5       49.5       75.4      102.4      130.6      156.3      174.9
     188.0      198.1      205.5      211.9      218.0      224.5      231.3      237.6      244.4      251.0
     257.8      264.6      271.2      277.0      281.9      285.8      288.3      289.7      289.7      288.0
     282.3      274.3      267.8
       0.5        0.5        0.5        0.5        0.5        0.5        0.5        0.9        1.3        2.1
       3.1        4.0        4.0        4.0        3.8        3.4        2.9        2.5        2.1        1.7
       1.5        1.5        1.3        1.3        1.3        1.1        1.1        1.1        1.1        0.9
       0.9        0.9        1.1        1.1        1.1        1.3        1.7        1.9        2.5        3.4
       4.8        7.7       15.9       33.2       55.6       82.0      108.3      131.4      148.7      163.5
     175.2      185.6      194.4      202.0      209.4      216.9      224.5      232.3      239.9      247.3
     254.9      261.5      267.9      273.4      278.2      282.1      284.6      286.0      286.0      283.1
     278.6      272.2      267.8
       0.5        0.5        0.5        0.5        0.5        0.5        0.5        0.5        0.7        0.7
       0.9        1.1        1.3        1.3        1.7        1.9        2.4        2.5        2.8        2.8
       2.8        2.8        2.5        2.5        2.4        2.1        1.9        1.7        1.7        1.5
       1.3        1.1        1.1        1.1        1.1        1.1        1.1        1.5        2.1        3.1
       6.2       12.6       26.8       45.8       66.4       85.7      103.0      119.2      132.9      145.4
     156.3      166.4      175.6      185.2      194.8      204.5      214.6      223.9      232.9      241.1
     249.2      256.2      262.6      267.7      271.6      274.5      276.1      276.3      275.9      274.5
     272.0      269.3      267.8
       0.5        0.5        0.5        0.5        0.5        0.5        0.5        0.5        0.5        0.5
       0.5        0.5        0.5        0.5        0.5        0.5        0.5        0.5        0.5        0.5
       0.5        0.5        0.5        0.5        0.5        0.5        0.5        0.5        0.5        0.5
       0.5        0.5        0.5        0.5        0.5        0.5        0.7        1.7        3.2        5.3
      10.6       19.3       29.0       39.3       50.7       62.4       74.7       87.6      100.2      112.6
     124.4      136.3      147.4      158.8      169.7      180.3      190.6      200.0      209.1      217.5
     225.6      232.5      239.0      244.6      249.4      253.7      257.0      260.2      262.7      264.9
     266.4      267.2      267.8
       0.5        0.5        0.5        0.5        0.5        0.5        0.5        0.5        0.5        0.5
       0.5        0.5        0.5        0.5        0.5        0.5        0.5        0.5        0.5        0.5
       0.5        0.5        0.5        0.5        0.5        0.5        0.5        0.5        0.5        0.5
       0.5        0.5        0.5        0.5        0.5        0.5        2.5        4.4        6.1        7.7
       9.9       13.1       16.9       21.2       27.1       33.4       40.6       48.8       57.5       67.2
      76.8       86.9       96.4      105.5      113.5      121.1      128.9      137.2      147.0      159.0
     176.1      193.2      209.2      226.3      243.2      252.0      255.1      258.0      260.3      261.9
     263.6      265.2      267.8
       0.5        0.5        0.5        0.5        0.5        0.5        0.5        0.5        0.5        0.5
       0.5        0.5        0.5        0.5        0.5        0.5        0.5        0.5        0.5        0.5
       0.5        0.5        0.5        0.5        0.5        0.5        0.5        0.5        0.5        0.5
       0.5        0.5        0.5        0.5        0.5        0.5        0.5        0.5        0.9        1.1
       1.5        1.9        2.4        2.8        3.5        4.4        5.2        6.5        7.9        9.5
      11.4       13.7       16.4       19.6       22.9       26.8       31.5       36.9       44.1       56.7
      80.8      112.9      142.5      154.9      163.7      173.0      197.9      228.2      258.2      265.2
     265.4      265.4      267.8
       0.5        0.5        0.5        0.5        0.5        0.5        0.5        0.5        0.5        0.5
       0.5        0.5        0.5        0.5        0.5        0.5        0.5        0.5        0.5        0.5
       0.5        0.5        0.5        0.5        0.5        0.5        0.5        0.5        0.5        0.5
       0.5        0.5        0.5        0.5        0.5        0.5        0.5        0.5        0.5        0.5
       0.5        0.5        0.5        0.5        0.5        0.5        0.5        0.5        0.5        0.5
       0.5        0.5        0.5        0.5        1.9        4.2        7.5       11.2       16.1       22.3
      29.9       37.9       48.1       73.4      121.5      158.2      169.3      181.2      220.7      258.2
     268.5      267.5      267.8
       0.5        0.5        0.5        0.5        0.5        0.5        0.5        0.5        0.5        0.5
       0.5        0.5        0.5        0.5        0.5        0.5        0.5        0.5        0.5        0.5
       0.5        0.5        0.5        0.5        0.5        0.5        0.5        0.5        0.5        0.5
       0.5        0.5        0.5        0.5        0.5        0.5        0.5        0.5        0.5        0.5
       0.5        0.5        0.5        0.5        0.5        0.5        0.5        0.5        0.5        0.5
       0.5        0.5        0.5        0.5        0.5        0.5        0.5        2.5        7.7       12.6
      18.6       26.4       36.3       46.8       70.7      126.6      163.1      174.9      190.7      236.6
     270.3      268.9      267.8
       0.5        0.5        0.5        0.5        0.5        0.5        0.5        0.5        0.5        0.5
       0.5        0.5        0.5        0.5        0.5        0.5        0.5        0.5        0.5        0.5
       0.5        0.5        0.5        0.5        0.5        0.5        0.5        0.5        0.5        0.5
       0.5        0.5        0.5        0.5        0.5        0.5        0.5        0.5        0.5        0.5
       0.5        0.5        0.5        0.5        0.5        0.5        0.5        0.5        0.5        0.5
       0.5        0.5        0.5        0.5        1.9        4.2        7.5       11.2       16.1       22.3
      29.9       37.9       48.1       73.4      121.5      158.2      169.3      181.2      220.7      258.2
     268.5      267.5      267.8
       0.5        0.5        0.5        0.5        0.5        0.5        0.5        0.5        0.5        0.5
       0.5        0.5        0.5        0.5        0.5        0.5        0.5        0.5        0.5        0.5
       0.5        0.5        0.5        0.5        0.5        0.5        0.5        0.5        0.5        0.5
       0.5        0.5        0.5        0.5        0.5        0.5        0.5        0.5        0.9        1.1
       1.5        1.9        2.4        2.8        3.5        4.4        5.2        6.5        7.9        9.5
      11.4       13.7       16.4       19.6       22.9       26.8       31.5       36.9       44.1       56.7
      80.8      112.9      142.5      154.9      163.7      173.0      197.9      228.2      258.2      265.2
     265.4      265.4      267.8
       0.5        0.5        0.5        0.5        0.5        0.5        0.5        0.5        0.5        0.5
       0.5        0.5        0.5        0.5        0.5        0.5        0.5        0.5        0.5        0.5
       0.5        0.5        0.5        0.5        0.5        0.5        0.5        0.5        0.5        0.5
       0.5        0.5        0.5        0.5        0.5        0.5        2.5        4.4        6.1        7.7
       9.9       13.1       16.9       21.2       27.1       33.4       40.6       48.8       57.5       67.2
      76.8       86.9       96.4      105.5      113.5      121.1      128.9      137.2      147.0      159.0
     176.1      193.2      209.2      226.3      243.2      252.0      255.1      258.0      260.3      261.9
     263.6      265.2      267.8
       0.5        0.5        0.5        0.5        0.5        0.5        0.5        0.5        0.5        0.5
       0.5        0.5        0.5        0.5        0.5        0.5        0.5        0.5        0.5        0.5
       0.5        0.5        0.5        0.5        0.5        0.5        0.5        0.5        0.5        0.5
       0.5        0.5        0.5        0.5        0.5        0.5        0.7        1.7        3.2        5.3
      10.6       19.3       29.0       39.3       50.7       62.4       74.7       87.6      100.2      112.6
     124.4      136.3      147.4      158.8      169.7      180.3      190.6      200.0      209.1      217.5
     225.6      232.5      239.0      244.6      249.4      253.7      257.0      260.2      262.7      264.9
     266.4      267.2      267.8
