IESNA:LM-63-1995
[TEST]16791
[MANUFAC]COOPER LIGHTING - SHAPER                                        
[LUMCAT]648-CF2/26-120SSB-PB                                                            
[LUMINAIRE]WALL SCONCE LUMINAIRE                   
[MORE]WITH WHITE INTERIOR AND WHITE PLASTIC BOWL LENS WITH OPEN TOP
[LAMP]TWO SYLVANIA 26 WATT CPFL LAMPS                                                 
[LAMPCAT]CF26DD/E/841. LUMEN RATING = 3650 LMS.                                          
[OTHER]ONE UNIVERSIAL C2642UNVSE BALLAST OPERATING AT 120 VAC AND 46 WATTS             
TILT=NONE
1
      3650
1
73
17
1
1
   .00
   .00
   .00
1
1
   46.0000
0 2.5 5 7.5 10 12.5 15 17.5 20 22.5 25 27.5 30 32.5 35 37.5
40 42.5 45 47.5 50 52.5 55 57.5 60 62.5 65 67.5 70 72.5 75
77.5 80 82.5 85 87.5 90 92.5 95 97.5 100 102.5 105 107.5 110
112.5 115 117.5 120 122.5 125 127.5 130 132.5 135 137.5 140
142.5 145 147.5 150 152.5 155 157.5 160 162.5 165 167.5 170
172.5 175 177.5 180
0 22.5 45 67.5 90 112.5 135 157.5 180 202.5 225 247.5
270 292.5 315 337.5 360
     156.3      156.2      155.6      154.7      153.4      151.7      149.6      147.3      144.6      141.8
     138.5      135.0      131.4      127.3      123.3      118.7      114.3      109.6      105.0      100.6
      95.6       90.8       85.8       80.7       75.7       70.9       66.0       61.1       56.5       51.6
      47.2       42.9       39.0       34.9       31.4       27.8       25.0       26.1       40.4       66.1
      91.8      123.8      163.7      199.2      230.4      252.4      271.7      291.4      309.2      327.5
     345.2      363.8      381.3      398.4      414.7      431.1      447.2      461.8      476.6      490.9
     505.1      517.6      529.6      540.0      548.4      555.4      560.6      564.6      567.7      569.8
     571.0      571.5      574.5
     156.3      157.8      159.3      160.3      160.9      161.3      161.2      160.7      159.9      158.7
     157.2      155.3      153.2      150.9      148.2      145.0      141.7      137.9      134.3      130.5
     126.4      122.2      117.6      112.8      107.5      102.3       97.1       91.9       86.4       80.7
      75.3       69.8       64.4       59.2       53.9       48.7       44.3       50.3       70.9      102.1
     143.3      179.8      211.4      234.4      257.5      278.4      297.5      318.8      339.7      360.1
     378.1      394.5      410.6      426.9      442.8      457.9      472.9      485.6      497.2      508.1
     518.8      528.0      536.6      544.1      551.3      558.0      564.3      569.7      572.2      573.3
     573.5      573.5      574.5
     156.3      159.3      162.8      166.0      168.7      171.0      172.9      174.5      175.6      176.4
     176.9      176.9      176.4      175.8      174.8      173.1      171.2      168.9      166.6      164.1
     160.9      157.6      153.2      148.8      144.0      138.9      133.3      127.9      122.4      116.0
     109.9      103.2       97.1       90.1       83.9       77.4       71.5       77.4       95.8      130.5
     180.6      225.8      267.3      295.0      318.2      338.3      354.7      370.5      387.3      404.7
     419.6      431.3      442.4      454.5      466.9      481.1      496.5      508.1      517.6      525.5
     533.2      540.4      546.9      551.9      556.5      560.3      563.9      568.4      572.9      572.9
     572.2      572.0      574.5
     156.3      161.2      166.2      171.0      175.1      178.9      182.5      185.7      188.3      190.5
     192.1      193.6      194.4      195.3      195.5      195.0      194.4      193.6      192.1      190.5
     188.2      185.4      181.9      178.1      173.3      168.3      163.0      157.4      151.7      145.0
     138.1      131.0      123.8      116.6      109.0      101.5       95.2       98.3      111.5      145.9
     196.8      243.8      287.8      324.9      357.0      385.6      407.8      426.7      442.6      458.3
     468.6      474.8      480.3      487.0      494.6      504.8      518.6      531.8      542.3      549.6
     556.5      563.0      568.4      572.6      575.2      575.2      574.5      574.3      576.2      574.9
     573.0      573.9      574.5
     156.3      163.9      169.7      175.0      180.2      184.6      188.8      192.6      195.9      198.8
     201.0      203.0      204.7      205.9      206.6      206.8      206.8      206.4      205.8      204.7
     202.8      200.5      197.2      193.4      188.8      184.0      178.6      172.9      167.2      160.3
     153.2      145.6      138.3      130.4      122.4      114.2      107.3      106.3      116.0      147.5
     193.2      240.5      280.1      310.9      348.6      384.0      419.8      451.0      471.9      486.2
     496.6      503.1      506.7      510.4      514.5      520.9      532.5      543.3      551.7      558.2
     564.0      568.8      572.4      575.2      576.8      578.1      579.3      579.0      576.4      572.0
     570.1      572.6      574.5
     156.3      161.2      166.2      171.0      175.1      178.9      182.5      185.7      188.3      190.5
     192.1      193.6      194.4      195.3      195.5      195.0      194.4      193.6      192.1      190.5
     188.2      185.4      181.9      178.1      173.3      168.3      163.0      157.4      151.7      145.0
     138.1      131.0      123.8      116.6      109.0      101.5       95.2       98.3      111.5      145.9
     196.8      243.8      287.8      324.9      357.0      385.6      407.8      426.7      442.6      458.3
     468.6      474.8      480.3      487.0      494.6      504.8      518.6      531.8      542.3      549.6
     556.5      563.0      568.4      572.6      575.2      575.2      574.5      574.3      576.2      574.9
     573.0      573.9      574.5
     156.3      159.3      162.8      166.0      168.7      171.0      172.9      174.5      175.6      176.4
     176.9      176.9      176.4      175.8      174.8      173.1      171.2      168.9      166.6      164.1
     160.9      157.6      153.2      148.8      144.0      138.9      133.3      127.9      122.4      116.0
     109.9      103.2       97.1       90.1       83.9       77.4       71.5       77.4       95.8      130.5
     180.6      225.8      267.3      295.0      318.2      338.3      354.7      370.5      387.3      404.7
     419.6      431.3      442.4      454.5      466.9      481.1      496.5      508.1      517.6      525.5
     533.2      540.4      546.9      551.9      556.5      560.3      563.9      568.4      572.9      572.9
     572.2      572.0      574.5
     156.3      157.8      159.3      160.3      160.9      161.3      161.2      160.7      159.9      158.7
     157.2      155.3      153.2      150.9      148.2      145.0      141.7      137.9      134.3      130.5
     126.4      122.2      117.6      112.8      107.5      102.3       97.1       91.9       86.4       80.7
      75.3       69.8       64.4       59.2       53.9       48.7       44.3       50.3       70.9      102.1
     143.3      179.8      211.4      234.4      257.5      278.4      297.5      318.8      339.7      360.1
     378.1      394.5      410.6      426.9      442.8      457.9      472.9      485.6      497.2      508.1
     518.8      528.0      536.6      544.1      551.3      558.0      564.3      569.7      572.2      573.3
     573.5      573.5      574.5
     156.3      156.2      155.6      154.7      153.4      151.7      149.6      147.3      144.6      141.8
     138.5      135.0      131.4      127.3      123.3      118.7      114.3      109.6      105.0      100.6
      95.6       90.8       85.8       80.7       75.7       70.9       66.0       61.1       56.5       51.6
      47.2       42.9       39.0       34.9       31.4       27.8       25.0       26.1       40.4       66.1
      91.8      123.8      163.7      199.2      230.4      252.4      271.7      291.4      309.2      327.5
     345.2      363.8      381.3      398.4      414.7      431.1      447.2      461.8      476.6      490.9
     505.1      517.6      529.6      540.0      548.4      555.4      560.6      564.6      567.7      569.8
     571.0      571.5      574.5
     156.3      153.0      150.3      147.5      144.2      140.8      136.9      132.9      128.5      124.1
     119.3      114.2      109.4      104.4       99.1       93.7       88.7       83.3       78.2       73.4
      68.3       64.0       59.2       54.8       50.2       46.0       42.0       38.2       34.5       30.9
      27.5       24.6       22.1       19.4       17.1       14.7       13.5       11.0       41.2       92.9
     144.8      176.9      201.1      220.9      241.2      260.7      280.1      299.2      315.5      331.0
     347.5      366.3      382.5      398.2      413.9      428.9      444.3      458.7      474.0      489.1
     504.3      518.4      531.8      543.5      554.2      563.6      570.7      573.9      574.8      574.3
     573.9      573.5      574.5
     156.3      151.3      146.7      141.9      136.6      131.2      125.3      119.5      113.4      107.3
     101.3       94.9       89.4       83.3       77.6       71.7       66.1       60.5       55.4       50.6
      45.8       41.3       37.2       33.2       29.7       26.3       23.1       20.4       17.9       15.4
      13.3       11.4        9.9        8.5        7.2        6.0        6.8        5.7       16.6       42.9
      84.9      127.6      172.2      217.5      259.5      286.8      309.2      330.4      347.7      361.5
     376.5      394.2      409.3      425.3      442.4      460.9      478.9      495.3      510.9      526.0
     540.6      554.2      566.2      575.2      581.6      587.3      591.7      594.4      593.8      588.6
     582.7      577.4      574.5
     156.3      150.3      144.2      138.1      131.4      125.0      117.8      110.9      103.8       96.7
      90.0       83.0       76.6       70.2       64.2       57.9       52.5       46.8       41.6       36.8
      32.0       27.8       23.6       20.4       17.3       14.7       12.3       10.4        8.5        6.8
       5.4        4.3        3.2        2.6         .5         .5         .5       11.7       21.3       43.2
      70.1      100.6      133.3      165.4      201.0      240.1      281.8      320.5      349.2      374.6
     398.2      421.5      439.8      460.4      482.6      503.9      523.6      541.1      557.5      570.6
     582.9      593.2      602.2      608.0      611.8      613.3      614.1      614.1      611.6      603.0
     591.9      581.2      574.5
     156.3      151.5      145.0      138.1      130.8      123.8      116.1      108.8      101.0       93.9
      86.8       79.7       72.8       66.3       60.0       53.7       48.1       42.0       36.8       31.7
      26.9       22.7       18.8       15.6       12.7       10.4        8.0        6.4        4.7        3.5
       2.4         .5        1.2         .5         .5         .5         .5       16.9       27.3       47.0
      69.0       93.1      122.4      153.4      190.2      225.7      266.5      308.3      344.2      369.9
     396.7      428.2      459.7      488.6      515.9      541.8      563.6      580.8      594.4      604.4
     612.7      618.7      623.6      626.2      627.1      626.2      624.6      623.3      621.9      614.1
     601.8      587.9      574.5
     156.3      150.3      144.2      138.1      131.4      125.0      117.8      110.9      103.8       96.7
      90.0       83.0       76.6       70.2       64.2       57.9       52.5       46.8       41.6       36.8
      32.0       27.8       23.6       20.4       17.3       14.7       12.3       10.4        8.5        6.8
       5.4        4.3        3.2        2.6         .5         .5         .5       11.7       21.3       43.2
      70.1      100.6      133.3      165.4      201.0      240.1      281.8      320.5      349.2      374.6
     398.2      421.5      439.8      460.4      482.6      503.9      523.6      541.1      557.5      570.6
     582.9      593.2      602.2      608.0      611.8      613.3      614.1      614.1      611.6      603.0
     591.9      581.2      574.5
     156.3      151.3      146.7      141.9      136.6      131.2      125.3      119.5      113.4      107.3
     101.3       94.9       89.4       83.3       77.6       71.7       66.1       60.5       55.4       50.6
      45.8       41.3       37.2       33.2       29.7       26.3       23.1       20.4       17.9       15.4
      13.3       11.4        9.9        8.5        7.2        6.0        6.8        5.7       16.6       42.9
      84.9      127.6      172.2      217.5      259.5      286.8      309.2      330.4      347.7      361.5
     376.5      394.2      409.3      425.3      442.4      460.9      478.9      495.3      510.9      526.0
     540.6      554.2      566.2      575.2      581.6      587.3      591.7      594.4      593.8      588.6
     582.7      577.4      574.5
     156.3      153.0      150.3      147.5      144.2      140.8      136.9      132.9      128.5      124.1
     119.3      114.2      109.4      104.4       99.1       93.7       88.7       83.3       78.2       73.4
      68.3       64.0       59.2       54.8       50.2       46.0       42.0       38.2       34.5       30.9
      27.5       24.6       22.1       19.4       17.1       14.7       13.5       11.0       41.2       92.9
     144.8      176.9      201.1      220.9      241.2      260.7      280.1      299.2      315.5      331.0
     347.5      366.3      382.5      398.2      413.9      428.9      444.3      458.7      474.0      489.1
     504.3      518.4      531.8      543.5      554.2      563.6      570.7      573.9      574.8      574.3
     573.9      573.5      574.5
     156.3      156.2      155.6      154.7      153.4      151.7      149.6      147.3      144.6      141.8
     138.5      135.0      131.4      127.3      123.3      118.7      114.3      109.6      105.0      100.6
      95.6       90.8       85.8       80.7       75.7       70.9       66.0       61.1       56.5       51.6
      47.2       42.9       39.0       34.9       31.4       27.8       25.0       26.1       40.4       66.1
      91.8      123.8      163.7      199.2      230.4      252.4      271.7      291.4      309.2      327.5
     345.2      363.8      381.3      398.4      414.7      431.1      447.2      461.8      476.6      490.9
     505.1      517.6      529.6      540.0      548.4      555.4      560.6      564.6      567.7      569.8
     571.0      571.5      574.5
