IESNA:LM-63-1995
[TEST]    16791A
[MANUFAC]COOPER LIGHTING - SHAPER                                         
[LUMCAT]648-CF2/13-120SSB-PB                                                            
[LUMINAIRE]WALL SCONCE LUMINAIRE WITH WHITE INTERIOR AND WHITE PLASTIC BOWL LENS WITH OPEN TOP                   
[LAMP]TWO13 WATT CPFL LAMPS. LUMEN RATING = 1800 LMS.                                 
[OTHER]SIMULATED REPORT FROM TEST WITH 2 - 26 WATT LAMPS                               
TILT=NONE
1
      1800
1
73
17
1
1
  0.00
  0.00
  0.00
1
1
    0.0000
0 2.5 5 7.5 10 12.5 15 17.5 20 22.5 25 27.5 30 32.5 35 37.5
40 42.5 45 47.5 50 52.5 55 57.5 60 62.5 65 67.5 70 72.5 75
77.5 80 82.5 85 87.5 90 92.5 95 97.5 100 102.5 105 107.5 110
112.5 115 117.5 120 122.5 125 127.5 130 132.5 135 137.5 140
142.5 145 147.5 150 152.5 155 157.5 160 162.5 165 167.5 170
172.5 175 177.5 180
0 22.5 45 67.5 90 112.5 135 157.5 180 202.5 225 247.5
270 292.5 315 337.5 360
      76.9       80.6       83.5       86.0       88.6       90.8       92.8       94.7       96.4       97.8
      98.9       99.9      100.7      101.3      101.6      101.7      101.7      101.5      101.2      100.7
      99.8       98.6       97.0       95.1       92.8       90.5       87.8       85.0       82.2       78.8
      75.3       71.6       68.0       64.0       60.1       56.1       52.7       52.2       56.9       72.5
      95.0      118.4      137.9      153.1      171.7      189.1      206.8      222.2      232.5      239.5
     244.7      247.9      249.6      251.5      253.5      256.6      262.3      267.7      271.8      275.0
     277.9      280.3      282.1      283.4      284.2      284.8      285.4      285.3      284.0      281.8
     280.9      282.1      283.1
      76.9       79.2       81.7       84.1       86.1       88.0       89.8       91.3       92.6       93.7
      94.5       95.2       95.6       96.1       96.1       95.9       95.6       95.2       94.5       93.7
      92.6       91.2       89.5       87.6       85.2       82.7       80.2       77.4       74.6       71.3
      67.8       64.3       60.8       57.2       53.5       49.8       46.7       48.2       54.7       71.7
      96.8      120.0      141.7      160.0      175.8      189.9      200.9      210.2      218.0      225.8
     230.8      233.9      236.6      239.9      243.6      248.7      255.5      262.0      267.2      270.8
     274.2      277.4      280.1      282.1      283.4      283.4      283.1      283.0      283.9      283.3
     282.4      282.8      283.1
      76.9       78.3       80.0       81.6       83.0       84.1       85.0       85.8       86.3       86.8
      87.0       87.0       86.8       86.5       86.0       85.1       84.2       83.0       81.9       80.7
      79.1       77.5       75.3       73.1       70.8       68.3       65.5       62.8       60.1       56.9
      53.9       50.6       47.6       44.2       41.1       37.9       35.0       37.9       47.0       64.1
      88.8      111.1      131.6      145.2      156.7      166.6      174.7      182.5      190.8      199.3
     206.7      212.4      217.9      223.9      230.0      237.0      244.6      250.3      255.0      258.9
     262.7      266.2      269.5      271.9      274.2      276.0      277.8      280.1      282.3      282.3
     281.9      281.8      283.1
      76.9       77.6       78.3       78.8       79.1       79.3       79.2       79.0       78.6       78.0
      77.3       76.4       75.3       74.2       72.8       71.3       69.6       67.8       66.0       64.1
      62.1       60.0       57.7       55.4       52.8       50.2       47.6       45.0       42.3       39.6
      36.9       34.2       31.5       28.9       26.4       23.8       21.6       24.6       34.7       50.1
      70.4       88.4      104.0      115.4      126.7      137.1      146.4      157.0      167.3      177.3
     186.2      194.3      202.2      210.3      218.1      225.5      233.0      239.2      245.0      250.3
     255.6      260.1      264.4      268.1      271.6      274.9      278.0      280.7      281.9      282.5
     282.6      282.6      283.1
      76.9       76.8       76.5       76.0       75.4       74.6       73.5       72.4       71.1       69.7
      68.1       66.3       64.5       62.5       60.6       58.3       56.1       53.8       51.5       49.3
      46.9       44.5       42.0       39.6       37.1       34.7       32.3       29.9       27.6       25.2
      23.0       20.9       19.0       17.0       15.2       13.5       12.1       12.6       19.7       32.3
      45.0       60.8       80.5       98.0      113.4      124.2      133.8      143.4      152.2      161.3
     170.0      179.2      187.8      196.2      204.2      212.3      220.3      227.5      234.8      241.8
     248.9      255.0      260.9      266.0      270.2      273.6      276.2      278.2      279.7      280.8
     281.3      281.6      283.1
      76.9       75.2       73.9       72.5       70.9       69.2       67.3       65.3       63.1       61.0
      58.6       56.1       53.7       51.2       48.6       46.0       43.5       40.8       38.3       36.0
      33.5       31.3       28.9       26.8       24.5       22.4       20.5       18.6       16.8       15.0
      13.3       11.9       10.7        9.3        8.2        7.0        6.4        5.2       20.1       45.6
      71.1       87.0       98.9      108.7      118.7      128.3      137.9      147.3      155.3      163.0
     171.1      180.4      188.4      196.1      203.9      211.3      218.9      226.0      233.5      240.9
     248.5      255.4      262.0      267.8      273.0      277.7      281.2      282.8      283.2      283.0
     282.8      282.6      283.1
      76.9       74.4       72.1       69.7       67.1       64.5       61.5       58.7       55.7       52.7
      49.7       46.6       43.8       40.8       38.0       35.1       32.4       29.6       27.1       24.7
      22.3       20.1       18.1       16.1       14.4       12.7       11.2        9.8        8.6        7.4
       6.3        5.4        4.7        3.9        3.3        2.7        3.1        2.6        8.0       20.9
      41.6       62.7       84.7      107.0      127.7      141.2      152.2      162.7      171.2      178.0
     185.4      194.2      201.6      209.5      217.9      227.0      235.9      244.0      251.7      259.1
     266.4      273.0      279.0      283.4      286.6      289.4      291.5      292.9      292.6      290.0
     287.1      284.5      283.1
      76.9       73.9       70.9       67.8       64.5       61.4       57.9       54.4       50.9       47.4
      44.1       40.7       37.5       34.4       31.4       28.3       25.6       22.8       20.3       17.9
      15.5       13.5       11.4        9.8        8.3        7.0        5.8        4.9        3.9        3.1
       2.4        1.9        1.4        1.1        0.0        0.0        0.0        5.5       10.2       21.1
      34.3       49.4       65.5       81.3       98.9      118.1      138.7      157.8      171.9      184.5
     196.1      207.6      216.7      226.8      237.7      248.3      258.0      266.6      274.7      281.1
     287.2      292.3      296.7      299.6      301.5      302.2      302.6      302.6      301.3      297.1
     291.7      286.4      283.1
      76.9       74.5       71.3       67.8       64.3       60.8       57.0       53.4       49.6       46.1
      42.6       39.0       35.7       32.4       29.4       26.2       23.5       20.5       17.9       15.4
      13.0       11.0        9.0        7.4        6.0        4.9        3.7        2.9        2.1        1.5
       0.9        0.0        0.3        0.0        0.0        0.0        0.0        8.1       13.2       22.9
      33.8       45.6       60.1       75.4       93.6      111.0      131.2      151.8      169.5      182.2
     195.4      210.9      226.5      240.7      254.2      267.0      277.7      286.2      292.9      297.8
     301.9      304.9      307.3      308.6      309.0      308.6      307.8      307.1      306.4      302.6
     296.5      289.7      283.1
      76.9       73.9       70.9       67.8       64.5       61.4       57.9       54.4       50.9       47.4
      44.1       40.7       37.5       34.4       31.4       28.3       25.6       22.8       20.3       17.9
      15.5       13.5       11.4        9.8        8.3        7.0        5.8        4.9        3.9        3.1
       2.4        1.9        1.4        1.1        0.0        0.0        0.0        5.5       10.2       21.1
      34.3       49.4       65.5       81.3       98.9      118.1      138.7      157.8      171.9      184.5
     196.1      207.6      216.7      226.8      237.7      248.3      258.0      266.6      274.7      281.1
     287.2      292.3      296.7      299.6      301.5      302.2      302.6      302.6      301.3      297.1
     291.7      286.4      283.1
      76.9       74.4       72.1       69.7       67.1       64.5       61.5       58.7       55.7       52.7
      49.7       46.6       43.8       40.8       38.0       35.1       32.4       29.6       27.1       24.7
      22.3       20.1       18.1       16.1       14.4       12.7       11.2        9.8        8.6        7.4
       6.3        5.4        4.7        3.9        3.3        2.7        3.1        2.6        8.0       20.9
      41.6       62.7       84.7      107.0      127.7      141.2      152.2      162.7      171.2      178.0
     185.4      194.2      201.6      209.5      217.9      227.0      235.9      244.0      251.7      259.1
     266.4      273.0      279.0      283.4      286.6      289.4      291.5      292.9      292.6      290.0
     287.1      284.5      283.1
      76.9       75.2       73.9       72.5       70.9       69.2       67.3       65.3       63.1       61.0
      58.6       56.1       53.7       51.2       48.6       46.0       43.5       40.8       38.3       36.0
      33.5       31.3       28.9       26.8       24.5       22.4       20.5       18.6       16.8       15.0
      13.3       11.9       10.7        9.3        8.2        7.0        6.4        5.2       20.1       45.6
      71.1       87.0       98.9      108.7      118.7      128.3      137.9      147.3      155.3      163.0
     171.1      180.4      188.4      196.1      203.9      211.3      218.9      226.0      233.5      240.9
     248.5      255.4      262.0      267.8      273.0      277.7      281.2      282.8      283.2      283.0
     282.8      282.6      283.1
      76.9       76.8       76.5       76.0       75.4       74.6       73.5       72.4       71.1       69.7
      68.1       66.3       64.5       62.5       60.6       58.3       56.1       53.8       51.5       49.3
      46.9       44.5       42.0       39.6       37.1       34.7       32.3       29.9       27.6       25.2
      23.0       20.9       19.0       17.0       15.2       13.5       12.1       12.6       19.7       32.3
      45.0       60.8       80.5       98.0      113.4      124.2      133.8      143.4      152.2      161.3
     170.0      179.2      187.8      196.2      204.2      212.3      220.3      227.5      234.8      241.8
     248.9      255.0      260.9      266.0      270.2      273.6      276.2      278.2      279.7      280.8
     281.3      281.6      283.1
      76.9       77.6       78.3       78.8       79.1       79.3       79.2       79.0       78.6       78.0
      77.3       76.4       75.3       74.2       72.8       71.3       69.6       67.8       66.0       64.1
      62.1       60.0       57.7       55.4       52.8       50.2       47.6       45.0       42.3       39.6
      36.9       34.2       31.5       28.9       26.4       23.8       21.6       24.6       34.7       50.1
      70.4       88.4      104.0      115.4      126.7      137.1      146.4      157.0      167.3      177.3
     186.2      194.3      202.2      210.3      218.1      225.5      233.0      239.2      245.0      250.3
     255.6      260.1      264.4      268.1      271.6      274.9      278.0      280.7      281.9      282.5
     282.6      282.6      283.1
      76.9       78.3       80.0       81.6       83.0       84.1       85.0       85.8       86.3       86.8
      87.0       87.0       86.8       86.5       86.0       85.1       84.2       83.0       81.9       80.7
      79.1       77.5       75.3       73.1       70.8       68.3       65.5       62.8       60.1       56.9
      53.9       50.6       47.6       44.2       41.1       37.9       35.0       37.9       47.0       64.1
      88.8      111.1      131.6      145.2      156.7      166.6      174.7      182.5      190.8      199.3
     206.7      212.4      217.9      223.9      230.0      237.0      244.6      250.3      255.0      258.9
     262.7      266.2      269.5      271.9      274.2      276.0      277.8      280.1      282.3      282.3
     281.9      281.8      283.1
      76.9       79.2       81.7       84.1       86.1       88.0       89.8       91.3       92.6       93.7
      94.5       95.2       95.6       96.1       96.1       95.9       95.6       95.2       94.5       93.7
      92.6       91.2       89.5       87.6       85.2       82.7       80.2       77.4       74.6       71.3
      67.8       64.3       60.8       57.2       53.5       49.8       46.7       48.2       54.7       71.7
      96.8      120.0      141.7      160.0      175.8      189.9      200.9      210.2      218.0      225.8
     230.8      233.9      236.6      239.9      243.6      248.7      255.5      262.0      267.2      270.8
     274.2      277.4      280.1      282.1      283.4      283.4      283.1      283.0      283.9      283.3
     282.4      282.8      283.1
      76.9       80.6       83.5       86.0       88.6       90.8       92.8       94.7       96.4       97.8
      98.9       99.9      100.7      101.3      101.6      101.7      101.7      101.5      101.2      100.7
      99.8       98.6       97.0       95.1       92.8       90.5       87.8       85.0       82.2       78.8
      75.3       71.6       68.0       64.0       60.1       56.1       52.7       52.2       56.9       72.5
      95.0      118.4      137.9      153.1      171.7      189.1      206.8      222.2      232.5      239.5
     244.7      247.9      249.6      251.5      253.5      256.6      262.3      267.7      271.8      275.0
     277.9      280.3      282.1      283.4      284.2      284.8      285.4      285.3      284.0      281.8
     280.9      282.1      283.1
