IESNA:LM-63-1995
[TEST]    19389A
[MANUFAC]COOPER LIGHTING - SHAPER                                
[LUMCAT]695-WP-DB-CF1/32                                                                
[LUMINAIRE]INTERIOR WALL MOUNT LUMINAIRE WITH WHITE INTERIOR AND LINEAR PRISMATIC GLASS LENS                             
[LAMP]ONE 32 WATT CPFL LAMP. LUMEN RATING = 2400 LMS.                                 
[OTHER]SIMULATED REPORT FROM TEST WITH 1 - 26 WATT LAMP                                
TILT=NONE
1
      2400
1
73
17
1
1
  0.42
  0.67
  0.00
1
1
    0.0000
0 2.5 5 7.5 10 12.5 15 17.5 20 22.5 25 27.5 30 32.5 35 37.5
40 42.5 45 47.5 50 52.5 55 57.5 60 62.5 65 67.5 70 72.5 75
77.5 80 82.5 85 87.5 90 92.5 95 97.5 100 102.5 105 107.5 110
112.5 115 117.5 120 122.5 125 127.5 130 132.5 135 137.5 140
142.5 145 147.5 150 152.5 155 157.5 160 162.5 165 167.5 170
172.5 175 177.5 180
0 22.5 45 67.5 90 112.5 135 157.5 180 202.5 225 247.5
270 292.5 315 337.5 360
     364.4      367.0      384.1      397.2      409.7      419.7      423.7      427.1      429.1      427.4
     424.1      415.3      406.2      399.2      397.6      396.9      390.8      381.1      371.3      360.3
     345.6      330.5      313.0      294.4      271.1      238.5      195.1      149.8      117.9       94.3
      74.3       57.5       45.4       36.6       30.3       26.5       23.2       20.5       17.5       15.1
      13.5       11.1        8.1        6.1        5.8        4.4        3.4        1.4        1.1        0.4
       0.0        0.0        0.0        0.0        0.0        0.0        0.0        0.0        0.0        0.0
       0.0        0.0        0.0        0.0        0.0        0.0        0.0        0.0        0.0        0.0
       0.0        0.0        0.0
     364.4      373.4      388.8      402.0      413.4      423.7      429.8      432.5      434.2      434.4
     431.1      425.8      415.3      403.9      396.6      390.1      382.9      373.4      361.0      345.2
     327.0      302.3      262.5      211.0      178.6      155.8      137.4      120.2      107.8       95.7
      83.3       68.5       54.5       41.0       31.9       23.9       17.5       14.9       13.8       12.1
       9.8        8.1        6.5        5.4        4.7        4.1        3.0        2.1        1.8        0.7
       0.7        0.0        0.0        0.0        0.0        0.0        0.0        0.0        0.0        0.0
       0.0        0.0        0.0        0.0        0.0        0.0        0.0        0.0        0.0        0.0
       0.0        0.0        0.0
     364.4      374.3      385.2      396.9      406.2      413.7      420.0      425.5      426.4      425.1
     423.4      417.6      409.7      398.3      384.1      366.6      349.2      328.7      304.9      275.7
     235.7      201.5      185.1      168.6      150.2      123.9       95.7       73.6       57.1       49.4
      45.7       44.4       38.6       27.9       21.2       14.9        7.2        5.1        4.7        4.1
       3.0        2.3        2.8        2.3        1.1        0.7        0.7        0.4        0.4        0.7
       0.0        0.7        0.4        0.0        0.0        0.0        0.0        0.0        0.0        0.0
       0.0        0.0        0.0        0.0        0.0        0.0        0.0        0.0        0.0        0.0
       0.0        0.0        0.0
     364.4      373.8      378.5      384.1      389.5      393.2      394.8      395.9      395.9      393.2
     389.2      381.5      370.8      357.0      341.5      323.3      302.3      276.0      249.2      211.0
     182.1      154.2      117.6       91.7       72.9       66.1       61.2       56.8       46.3       33.6
      27.0       27.5       28.9       18.8       12.8        7.7        2.3        1.4        0.0        0.0
       0.7        0.4        0.0        0.0        0.0        0.0        0.0        0.0        0.0        0.0
       0.0        0.0        0.0        0.0        0.0        0.0        0.0        0.0        0.0        0.0
       0.0        0.0        0.0        0.0        0.0        0.0        0.0        0.0        0.0        0.0
       0.0        0.0        0.0
     364.4      368.1      367.2      365.2      361.5      357.6      353.9      348.9      342.1      334.6
     326.2      314.5      301.9      287.6      271.5      250.7      227.2      200.8      170.0      144.9
     118.4       91.5       69.9       56.1       51.9       47.2       40.8       30.3       21.3       19.0
      20.7       20.5       12.3        9.4        6.3        1.4        0.0        0.0        0.0        0.0
       0.0        0.0        0.0        0.0        0.0        0.0        0.0        0.0        0.0        0.0
       0.0        0.0        0.0        0.0        0.0        0.0        0.0        0.0        0.0        0.0
       0.0        0.0        0.0        0.0        0.0        0.0        0.0        0.0        0.0        0.0
       0.0        0.0        0.0
     364.4      365.7      354.9      339.5      321.0      301.6      283.7      266.9      248.5      232.7
     215.9      197.1      179.1      160.9      142.1      122.0      102.5       85.0       71.2       59.1
      49.4       37.7       27.5       20.5       16.8       15.8       12.5       11.1        8.1        5.1
       4.7        4.1        3.0        0.7        0.4        0.0        0.0        0.0        0.0        0.0
       0.0        0.0        0.0        0.0        0.0        0.0        0.0        0.0        0.0        0.0
       0.0        0.0        0.0        0.0        0.0        0.0        0.0        0.0        0.0        0.0
       0.0        0.0        0.0        0.0        0.0        0.0        0.0        0.0        0.0        0.0
       0.0        0.0        0.0
     364.4      348.2      309.6      276.4      246.2      216.3      187.0      163.9      144.4      129.0
     115.5      102.7       89.7       77.6       65.9       55.8       46.1       36.3       27.5       19.5
      16.5       13.5       10.7        8.1        5.8        3.7        2.3        1.4        0.7        0.7
       0.4        0.0        0.0        0.0        0.0        0.0        0.0        0.0        0.0        0.0
       0.0        0.0        0.0        0.0        0.0        0.0        0.0        0.0        0.0        0.0
       0.0        0.0        0.0        0.0        0.0        0.0        0.0        0.0        0.0        0.0
       0.0        0.0        0.0        0.0        0.0        0.0        0.0        0.0        0.0        0.0
       0.0        0.0        0.0
     364.4      324.7      275.3      232.0      189.4      160.5      136.4      116.2       96.4       79.2
      63.8       48.7       36.6       27.9       20.9       14.9        9.5        6.5        4.1        2.8
       1.4        0.0        0.0        0.0        0.0        0.0        0.0        0.0        0.0        0.0
       0.0        0.0        0.0        0.0        0.0        0.0        0.0        0.0        0.0        0.0
       0.0        0.0        0.0        0.0        0.0        0.0        0.0        0.0        0.0        0.0
       0.0        0.0        0.0        0.0        0.0        0.0        0.0        0.0        0.0        0.0
       0.0        0.0        0.0        0.0        0.0        0.0        0.0        0.0        0.0        0.0
       0.0        0.0        0.0
     364.4      307.2      255.2      203.8      164.6      139.7      115.5       93.1       71.2       53.8
      39.1       26.5       16.1        8.1        3.4        0.0        0.0        0.0        0.0        0.0
       0.0        0.0        0.0        0.0        0.0        0.0        0.0        0.0        0.0        0.0
       0.0        0.0        0.0        0.0        0.0        0.0        0.0        0.0        0.0        0.0
       0.0        0.0        0.0        0.0        0.0        0.0        0.0        0.0        0.0        0.0
       0.0        0.0        0.0        0.0        0.0        0.0        0.0        0.0        0.0        0.0
       0.0        0.0        0.0        0.0        0.0        0.0        0.0        0.0        0.0        0.0
       0.0        0.0        0.0
     364.4      324.7      275.3      232.0      189.4      160.5      136.4      116.2       96.4       79.2
      63.8       48.7       36.6       27.9       20.9       14.9        9.5        6.5        4.1        2.8
       1.4        0.0        0.0        0.0        0.0        0.0        0.0        0.0        0.0        0.0
       0.0        0.0        0.0        0.0        0.0        0.0        0.0        0.0        0.0        0.0
       0.0        0.0        0.0        0.0        0.0        0.0        0.0        0.0        0.0        0.0
       0.0        0.0        0.0        0.0        0.0        0.0        0.0        0.0        0.0        0.0
       0.0        0.0        0.0        0.0        0.0        0.0        0.0        0.0        0.0        0.0
       0.0        0.0        0.0
     364.4      348.2      309.6      276.4      246.2      216.3      187.0      163.9      144.4      129.0
     115.5      102.7       89.7       77.6       65.9       55.8       46.1       36.3       27.5       19.5
      16.5       13.5       10.7        8.1        5.8        3.7        2.3        1.4        0.7        0.7
       0.4        0.0        0.0        0.0        0.0        0.0        0.0        0.0        0.0        0.0
       0.0        0.0        0.0        0.0        0.0        0.0        0.0        0.0        0.0        0.0
       0.0        0.0        0.0        0.0        0.0        0.0        0.0        0.0        0.0        0.0
       0.0        0.0        0.0        0.0        0.0        0.0        0.0        0.0        0.0        0.0
       0.0        0.0        0.0
     364.4      365.7      354.9      339.5      321.0      301.6      283.7      266.9      248.5      232.7
     215.9      197.1      179.1      160.9      142.1      122.0      102.5       85.0       71.2       59.1
      49.4       37.7       27.5       20.5       16.8       15.8       12.5       11.1        8.1        5.1
       4.7        4.1        3.0        0.7        0.4        0.0        0.0        0.0        0.0        0.0
       0.0        0.0        0.0        0.0        0.0        0.0        0.0        0.0        0.0        0.0
       0.0        0.0        0.0        0.0        0.0        0.0        0.0        0.0        0.0        0.0
       0.0        0.0        0.0        0.0        0.0        0.0        0.0        0.0        0.0        0.0
       0.0        0.0        0.0
     364.4      368.1      367.2      365.2      361.5      357.6      353.9      348.9      342.1      334.6
     326.2      314.5      301.9      287.6      271.5      250.7      227.2      200.8      170.0      144.9
     118.4       91.5       69.9       56.1       51.9       47.2       40.8       30.3       21.3       19.0
      20.7       20.5       12.3        9.4        6.3        1.4        0.0        0.0        0.0        0.0
       0.0        0.0        0.0        0.0        0.0        0.0        0.0        0.0        0.0        0.0
       0.0        0.0        0.0        0.0        0.0        0.0        0.0        0.0        0.0        0.0
       0.0        0.0        0.0        0.0        0.0        0.0        0.0        0.0        0.0        0.0
       0.0        0.0        0.0
     364.4      373.8      378.5      384.1      389.5      393.2      394.8      395.9      395.9      393.2
     389.2      381.5      370.8      357.0      341.5      323.3      302.3      276.0      249.2      211.0
     182.1      154.2      117.6       91.7       72.9       66.1       61.2       56.8       46.3       33.6
      27.0       27.5       28.9       18.8       12.8        7.7        2.3        1.4        0.0        0.0
       0.7        0.4        0.0        0.0        0.0        0.0        0.0        0.0        0.0        0.0
       0.0        0.0        0.0        0.0        0.0        0.0        0.0        0.0        0.0        0.0
       0.0        0.0        0.0        0.0        0.0        0.0        0.0        0.0        0.0        0.0
       0.0        0.0        0.0
     364.4      374.3      385.2      396.9      406.2      413.7      420.0      425.5      426.4      425.1
     423.4      417.6      409.7      398.3      384.1      366.6      349.2      328.7      304.9      275.7
     235.7      201.5      185.1      168.6      150.2      123.9       95.7       73.6       57.1       49.4
      45.7       44.4       38.6       27.9       21.2       14.9        7.2        5.1        4.7        4.1
       3.0        2.3        2.8        2.3        1.1        0.7        0.7        0.4        0.4        0.7
       0.0        0.7        0.4        0.0        0.0        0.0        0.0        0.0        0.0        0.0
       0.0        0.0        0.0        0.0        0.0        0.0        0.0        0.0        0.0        0.0
       0.0        0.0        0.0
     364.4      373.4      388.8      402.0      413.4      423.7      429.8      432.5      434.2      434.4
     431.1      425.8      415.3      403.9      396.6      390.1      382.9      373.4      361.0      345.2
     327.0      302.3      262.5      211.0      178.6      155.8      137.4      120.2      107.8       95.7
      83.3       68.5       54.5       41.0       31.9       23.9       17.5       14.9       13.8       12.1
       9.8        8.1        6.5        5.4        4.7        4.1        3.0        2.1        1.8        0.7
       0.7        0.0        0.0        0.0        0.0        0.0        0.0        0.0        0.0        0.0
       0.0        0.0        0.0        0.0        0.0        0.0        0.0        0.0        0.0        0.0
       0.0        0.0        0.0
     364.4      367.0      384.1      397.2      409.7      419.7      423.7      427.1      429.1      427.4
     424.1      415.3      406.2      399.2      397.6      396.9      390.8      381.1      371.3      360.3
     345.6      330.5      313.0      294.4      271.1      238.5      195.1      149.8      117.9       94.3
      74.3       57.5       45.4       36.6       30.3       26.5       23.2       20.5       17.5       15.1
      13.5       11.1        8.1        6.1        5.8        4.4        3.4        1.4        1.1        0.4
       0.0        0.0        0.0        0.0        0.0        0.0        0.0        0.0        0.0        0.0
       0.0        0.0        0.0        0.0        0.0        0.0        0.0        0.0        0.0        0.0
       0.0        0.0        0.0
