IESNA:LM-63-1995
[TEST]     19389
[MANUFAC]COOPER LIGHTING - SHAPER                                 
[LUMCAT]695-WP-DB-CF1/26                                                                
[LUMINAIRE]INTERIOR WALL MOUNT LUMINAIRE WITH WHITE INTERIOR AND LINEAR PRISMATIC GLASS LENS                             
[LAMP]ONE SYLVANIA 26 WATT CPFL LAMP                                                  
[LAMPCAT]CF26DT/E/827. LUMEN RATING = 1800 LMS.                                          
[OTHER]ONE UNIVERSAL C2642UNVSE BALLAST OPERATING AT 120 VAC AND 23 WATTS              
TILT=NONE
1
      1800
1
73
17
1
1
 -0.08
  0.67
  0.21
1
1
   23.0000
0 2.5 5 7.5 10 12.5 15 17.5 20 22.5 25 27.5 30 32.5 35 37.5
40 42.5 45 47.5 50 52.5 55 57.5 60 62.5 65 67.5 70 72.5 75
77.5 80 82.5 85 87.5 90 92.5 95 97.5 100 102.5 105 107.5 110
112.5 115 117.5 120 122.5 125 127.5 130 132.5 135 137.5 140
142.5 145 147.5 150 152.5 155 157.5 160 162.5 165 167.5 170
172.5 175 177.5 180
0 22.5 45 67.5 90 112.5 135 157.5 180 202.5 225 247.5
270 292.5 315 337.5 360
     273.8      276.6      275.9      274.4      271.6      268.7      265.9      262.2      257.1      251.4
     245.1      236.4      226.9      216.2      204.1      188.5      170.9      151.1      128.0      109.2
      89.3       69.1       52.9       42.6       39.4       35.9       31.1       23.2       16.5       14.7
      16.0       15.9        9.7        7.6        5.2        1.5        0.5        0.5        0.5        0.5
       0.5        0.5        0.5        0.5        0.5        0.5        0.5        0.5        0.5        0.5
       0.5        0.5        0.5        0.5        0.5        0.5        0.5        0.5        0.5        0.5
       0.5        0.5        0.5        0.5        0.5        0.5        0.5        0.5        0.5        0.5
       0.5        0.5        0.5
     273.8      280.8      284.3      288.6      292.6      295.4      296.6      297.4      297.4      295.4
     292.4      286.6      278.6      268.3      256.6      243.0      227.2      207.5      187.4      158.7
     137.1      116.1       88.7       69.3       55.2       50.1       46.4       43.1       35.3       25.7
      20.7       21.1       22.2       14.6       10.1        6.3        2.3        1.5        0.5        0.5
       1.0        0.8        0.5        0.5        0.5        0.5        0.5        0.5        0.5        0.5
       0.5        0.5        0.5        0.5        0.5        0.5        0.5        0.5        0.5        0.5
       0.5        0.5        0.5        0.5        0.5        0.5        0.5        0.5        0.5        0.5
       0.5        0.5        0.5
     273.8      281.2      289.4      298.2      305.2      310.7      315.5      319.6      320.3      319.3
     318.1      313.7      307.8      299.2      288.6      275.5      262.4      247.0      229.2      207.3
     177.3      151.6      139.3      126.9      113.1       93.4       72.3       55.7       43.3       37.5
      34.7       33.8       29.5       21.4       16.4       11.6        5.9        4.3        4.0        3.6
       2.8        2.3        2.6        2.3        1.3        1.0        1.0        0.8        0.8        1.0
       0.5        1.0        0.8        0.5        0.5        0.5        0.5        0.5        0.5        0.5
       0.5        0.5        0.5        0.5        0.5        0.5        0.5        0.5        0.5        0.5
       0.5        0.5        0.5
     273.8      280.5      292.1      302.0      310.5      318.3      322.8      324.9      326.1      326.3
     323.8      319.8      312.0      303.4      298.0      293.1      287.6      280.5      271.2      259.4
     245.8      227.2      197.4      158.7      134.5      117.4      103.5       90.6       81.4       72.3
      63.0       51.9       41.3       31.2       24.4       18.4       13.6       11.6       10.8        9.6
       7.8        6.6        5.3        4.5        4.0        3.6        2.8        2.0        1.8        1.0
       1.0        0.5        0.5        0.5        0.5        0.5        0.5        0.5        0.5        0.5
       0.5        0.5        0.5        0.5        0.5        0.5        0.5        0.5        0.5        0.5
       0.5        0.5        0.5
     273.8      275.8      288.6      298.4      307.8      315.3      318.3      320.9      322.3      321.1
     318.6      312.0      305.2      299.9      298.7      298.2      293.6      286.3      279.0      270.7
     259.7      248.3      235.2      221.3      203.8      179.3      146.9      112.8       88.9       71.3
      56.2       43.6       34.5       27.9       23.2       20.4       17.9       15.9       13.6       11.8
      10.6        8.9        6.6        5.0        4.8        3.8        3.1        1.5        1.3        0.8
       0.5        0.5        0.5        0.5        0.5        0.5        0.5        0.5        0.5        0.5
       0.5        0.5        0.5        0.5        0.5        0.5        0.5        0.5        0.5        0.5
       0.5        0.5        0.5
     273.8      280.5      292.1      302.0      310.5      318.3      322.8      324.9      326.1      326.3
     323.8      319.8      312.0      303.4      298.0      293.1      287.6      280.5      271.2      259.4
     245.8      227.2      197.4      158.7      134.5      117.4      103.5       90.6       81.4       72.3
      63.0       51.9       41.3       31.2       24.4       18.4       13.6       11.6       10.8        9.6
       7.8        6.6        5.3        4.5        4.0        3.6        2.8        2.0        1.8        1.0
       1.0        0.5        0.5        0.5        0.5        0.5        0.5        0.5        0.5        0.5
       0.5        0.5        0.5        0.5        0.5        0.5        0.5        0.5        0.5        0.5
       0.5        0.5        0.5
     273.8      281.2      289.4      298.2      305.2      310.7      315.5      319.6      320.3      319.3
     318.1      313.7      307.8      299.2      288.6      275.5      262.4      247.0      229.2      207.3
     177.3      151.6      139.3      126.9      113.1       93.4       72.3       55.7       43.3       37.5
      34.7       33.8       29.5       21.4       16.4       11.6        5.9        4.3        4.0        3.6
       2.8        2.3        2.6        2.3        1.3        1.0        1.0        0.8        0.8        1.0
       0.5        1.0        0.8        0.5        0.5        0.5        0.5        0.5        0.5        0.5
       0.5        0.5        0.5        0.5        0.5        0.5        0.5        0.5        0.5        0.5
       0.5        0.5        0.5
     273.8      280.8      284.3      288.6      292.6      295.4      296.6      297.4      297.4      295.4
     292.4      286.6      278.6      268.3      256.6      243.0      227.2      207.5      187.4      158.7
     137.1      116.1       88.7       69.3       55.2       50.1       46.4       43.1       35.3       25.7
      20.7       21.1       22.2       14.6       10.1        6.3        2.3        1.5        0.5        0.5
       1.0        0.8        0.5        0.5        0.5        0.5        0.5        0.5        0.5        0.5
       0.5        0.5        0.5        0.5        0.5        0.5        0.5        0.5        0.5        0.5
       0.5        0.5        0.5        0.5        0.5        0.5        0.5        0.5        0.5        0.5
       0.5        0.5        0.5
     273.8      276.6      275.9      274.4      271.6      268.7      265.9      262.2      257.1      251.4
     245.1      236.4      226.9      216.2      204.1      188.5      170.9      151.1      128.0      109.2
      89.3       69.1       52.9       42.6       39.4       35.9       31.1       23.2       16.5       14.7
      16.0       15.9        9.7        7.6        5.2        1.5        0.5        0.5        0.5        0.5
       0.5        0.5        0.5        0.5        0.5        0.5        0.5        0.5        0.5        0.5
       0.5        0.5        0.5        0.5        0.5        0.5        0.5        0.5        0.5        0.5
       0.5        0.5        0.5        0.5        0.5        0.5        0.5        0.5        0.5        0.5
       0.5        0.5        0.5
     273.8      274.7      266.7      255.2      241.2      226.7      213.3      200.7      186.9      175.0
     162.4      148.3      134.8      121.2      107.0       92.0       77.3       64.2       53.9       44.9
      37.5       28.8       21.1       15.9       13.1       12.4        9.9        8.9        6.6        4.3
       4.0        3.6        2.8        1.0        0.8        0.5        0.5        0.5        0.5        0.5
       0.5        0.5        0.5        0.5        0.5        0.5        0.5        0.5        0.5        0.5
       0.5        0.5        0.5        0.5        0.5        0.5        0.5        0.5        0.5        0.5
       0.5        0.5        0.5        0.5        0.5        0.5        0.5        0.5        0.5        0.5
       0.5        0.5        0.5
     273.8      261.7      232.7      207.8      185.1      162.7      140.8      123.4      108.8       97.2
      87.1       77.5       67.7       58.7       49.9       42.4       35.1       27.7       21.1       15.1
      12.9       10.6        8.5        6.6        4.8        3.3        2.3        1.5        1.0        1.0
       0.8        0.5        0.5        0.5        0.5        0.5        0.5        0.5        0.5        0.5
       0.5        0.5        0.5        0.5        0.5        0.5        0.5        0.5        0.5        0.5
       0.5        0.5        0.5        0.5        0.5        0.5        0.5        0.5        0.5        0.5
       0.5        0.5        0.5        0.5        0.5        0.5        0.5        0.5        0.5        0.5
       0.5        0.5        0.5
     273.8      244.0      207.0      174.5      142.5      120.9      102.8       87.7       72.8       59.9
      48.4       37.0       27.9       21.4       16.2       11.6        7.6        5.3        3.6        2.6
       1.5        0.5        0.5        0.5        0.5        0.5        0.5        0.5        0.5        0.5
       0.5        0.5        0.5        0.5        0.5        0.5        0.5        0.5        0.5        0.5
       0.5        0.5        0.5        0.5        0.5        0.5        0.5        0.5        0.5        0.5
       0.5        0.5        0.5        0.5        0.5        0.5        0.5        0.5        0.5        0.5
       0.5        0.5        0.5        0.5        0.5        0.5        0.5        0.5        0.5        0.5
       0.5        0.5        0.5
     273.8      230.9      191.9      153.4      124.0      105.3       87.1       70.3       53.9       40.8
      29.8       20.4       12.6        6.6        3.1        0.5        0.5        0.5        0.5        0.5
       0.5        0.5        0.5        0.5        0.5        0.5        0.5        0.5        0.5        0.5
       0.5        0.5        0.5        0.5        0.5        0.5        0.5        0.5        0.5        0.5
       0.5        0.5        0.5        0.5        0.5        0.5        0.5        0.5        0.5        0.5
       0.5        0.5        0.5        0.5        0.5        0.5        0.5        0.5        0.5        0.5
       0.5        0.5        0.5        0.5        0.5        0.5        0.5        0.5        0.5        0.5
       0.5        0.5        0.5
     273.8      244.0      207.0      174.5      142.5      120.9      102.8       87.7       72.8       59.9
      48.4       37.0       27.9       21.4       16.2       11.6        7.6        5.3        3.6        2.6
       1.5        0.5        0.5        0.5        0.5        0.5        0.5        0.5        0.5        0.5
       0.5        0.5        0.5        0.5        0.5        0.5        0.5        0.5        0.5        0.5
       0.5        0.5        0.5        0.5        0.5        0.5        0.5        0.5        0.5        0.5
       0.5        0.5        0.5        0.5        0.5        0.5        0.5        0.5        0.5        0.5
       0.5        0.5        0.5        0.5        0.5        0.5        0.5        0.5        0.5        0.5
       0.5        0.5        0.5
     273.8      261.7      232.7      207.8      185.1      162.7      140.8      123.4      108.8       97.2
      87.1       77.5       67.7       58.7       49.9       42.4       35.1       27.7       21.1       15.1
      12.9       10.6        8.5        6.6        4.8        3.3        2.3        1.5        1.0        1.0
       0.8        0.5        0.5        0.5        0.5        0.5        0.5        0.5        0.5        0.5
       0.5        0.5        0.5        0.5        0.5        0.5        0.5        0.5        0.5        0.5
       0.5        0.5        0.5        0.5        0.5        0.5        0.5        0.5        0.5        0.5
       0.5        0.5        0.5        0.5        0.5        0.5        0.5        0.5        0.5        0.5
       0.5        0.5        0.5
     273.8      274.7      266.7      255.2      241.2      226.7      213.3      200.7      186.9      175.0
     162.4      148.3      134.8      121.2      107.0       92.0       77.3       64.2       53.9       44.9
      37.5       28.8       21.1       15.9       13.1       12.4        9.9        8.9        6.6        4.3
       4.0        3.6        2.8        1.0        0.8        0.5        0.5        0.5        0.5        0.5
       0.5        0.5        0.5        0.5        0.5        0.5        0.5        0.5        0.5        0.5
       0.5        0.5        0.5        0.5        0.5        0.5        0.5        0.5        0.5        0.5
       0.5        0.5        0.5        0.5        0.5        0.5        0.5        0.5        0.5        0.5
       0.5        0.5        0.5
     273.8      276.6      275.9      274.4      271.6      268.7      265.9      262.2      257.1      251.4
     245.1      236.4      226.9      216.2      204.1      188.5      170.9      151.1      128.0      109.2
      89.3       69.1       52.9       42.6       39.4       35.9       31.1       23.2       16.5       14.7
      16.0       15.9        9.7        7.6        5.2        1.5        0.5        0.5        0.5        0.5
       0.5        0.5        0.5        0.5        0.5        0.5        0.5        0.5        0.5        0.5
       0.5        0.5        0.5        0.5        0.5        0.5        0.5        0.5        0.5        0.5
       0.5        0.5        0.5        0.5        0.5        0.5        0.5        0.5        0.5        0.5
       0.5        0.5        0.5
