IESNA:LM-63-1995
[TEST]     19387
[MANUFAC]COOPER LIGHTING - SHAPER                                 
[LUMCAT]673-WP-CF2/13                                                                   
[LUMINAIRE]EXTERIOR WALL MOUNT LUMINAIRE WITH WHITE INTERIOR AND WHITE PLASTIC LENS                                      
[LAMP]TWO SYLVANIA 13 WATT CPFL LAMPS                                                 
[LAMPCAT]CF13DS/E/830. LUMEN RATING = 1800 LMS.                                          
[OTHER]ONE ES/2-1-CFT-13-UNV-D BALLAST OPERATING AT 120 VAC AND 27 WATTS               
TILT=NONE
1
      1800
1
73
17
1
1
  0.00
  0.00
  0.00
1
1
   27.0000
0 2.5 5 7.5 10 12.5 15 17.5 20 22.5 25 27.5 30 32.5 35 37.5
40 42.5 45 47.5 50 52.5 55 57.5 60 62.5 65 67.5 70 72.5 75
77.5 80 82.5 85 87.5 90 92.5 95 97.5 100 102.5 105 107.5 110
112.5 115 117.5 120 122.5 125 127.5 130 132.5 135 137.5 140
142.5 145 147.5 150 152.5 155 157.5 160 162.5 165 167.5 170
172.5 175 177.5 180
0 22.5 45 67.5 90 112.5 135 157.5 180 202.5 225 247.5
270 292.5 315 337.5 360
      26.3       27.8       34.2       41.3       46.2       50.7       55.2       58.4       61.7       63.7
      65.5       66.9       68.7       70.5       71.9       72.9       73.9       74.3       75.6       76.6
      78.0       79.3       80.3       81.7       83.3       84.5       85.9       87.0       88.1       89.8
      90.7       91.3       92.0       92.0       92.3       92.6       92.2       91.9       91.3       90.4
      89.1       87.9       85.9       84.0       82.6       80.2       78.0       75.4       72.7       70.0
      67.1       63.5       60.4       57.0       53.5       49.8       46.1       42.4       38.6       34.6
      30.5       26.7       22.9       19.4       15.2       11.0        6.0        2.0        0.5        0.5
       0.5        0.5        0.5
      26.3       27.9       37.5       49.2       59.3       67.4       74.8       82.3       88.0       91.5
      94.5       97.8      100.1      102.6      104.8      106.9      109.3      111.5      114.8      117.9
     121.9      126.0      130.1      133.8      137.6      141.1      144.2      147.3      150.2      152.2
     154.7      156.4      157.6      159.3      159.7      160.3      160.4      159.9      159.0      157.9
     155.6      153.4      150.1      146.8      144.2      140.6      137.1      132.6      128.1      123.1
     118.2      112.4      107.2      101.4       95.3       89.1       83.2       76.7       69.3       62.4
      53.9       45.9       37.1       28.7       21.0       13.8        7.1        2.0        0.5        0.5
       0.5        0.5        0.5
      26.3       28.3       40.7       59.6       76.7       91.9      104.6      112.2      114.5      114.6
     114.7      114.9      115.9      118.0      122.2      126.5      132.2      137.8      144.8      151.2
     158.1      164.6      171.3      177.3      183.2      188.7      193.4      198.5      202.7      206.4
     209.2      212.7      214.7      217.1      217.8      219.1      218.9      218.6      218.0      216.1
     214.2      210.9      206.8      202.8      197.9      193.8      188.9      183.6      177.3      170.3
     163.4      156.5      149.2      141.3      133.5      125.5      116.3      108.1       98.6       90.3
      80.5       71.2       61.8       51.4       39.8       25.9       14.1        4.8        0.5        0.5
       0.5        0.5        0.5
      26.3       28.7       42.7       66.4       89.6      105.7      114.8      118.9      119.7      118.2
     118.7      120.3      124.5      129.6      135.2      143.6      151.6      161.1      169.6      179.0
     187.7      196.6      204.4      212.7      219.9      227.1      233.3      239.2      244.6      248.9
     253.4      257.2      259.9      262.8      264.4      265.6      266.0      265.4      264.7      263.1
     260.0      256.6      251.4      246.7      242.2      236.6      230.9      224.6      217.3      208.4
     200.2      192.1      183.5      173.5      164.1      154.5      143.4      133.1      122.8      112.2
     100.8       90.0       78.4       67.6       56.5       44.7       31.5       17.1        7.1        1.1
       0.5        0.5        0.5
      26.3       28.5       41.9       65.3       90.4      105.3      114.4      118.2      119.4      120.1
     120.9      123.2      127.2      133.5      141.4      150.7      160.2      170.7      180.3      190.2
     199.4      209.1      218.3      226.7      234.6      242.2      248.8      255.5      261.2      266.5
     271.0      274.9      278.4      281.0      283.2      284.1      284.9      284.8      283.8      282.3
     279.1      275.7      270.4      265.7      260.6      254.9      249.0      242.6      234.7      226.0
     217.2      208.4      198.5      189.2      178.9      167.9      157.4      146.3      134.7      123.5
     112.1      100.8       88.5       77.3       65.9       53.3       39.6       25.4       12.4        4.0
       0.5        0.5        0.5
      26.3       28.7       42.7       66.4       89.6      105.7      114.8      118.9      119.7      118.2
     118.7      120.3      124.5      129.6      135.2      143.6      151.6      161.1      169.6      179.0
     187.7      196.6      204.4      212.7      219.9      227.1      233.3      239.2      244.6      248.9
     253.4      257.2      259.9      262.8      264.4      265.6      266.0      265.4      264.7      263.1
     260.0      256.6      251.4      246.7      242.2      236.6      230.9      224.6      217.3      208.4
     200.2      192.1      183.5      173.5      164.1      154.5      143.4      133.1      122.8      112.2
     100.8       90.0       78.4       67.6       56.5       44.7       31.5       17.1        7.1        1.1
       0.5        0.5        0.5
      26.3       28.3       40.7       59.6       76.7       91.9      104.6      112.2      114.5      114.6
     114.7      114.9      115.9      118.0      122.2      126.5      132.2      137.8      144.8      151.2
     158.1      164.6      171.3      177.3      183.2      188.7      193.4      198.5      202.7      206.4
     209.2      212.7      214.7      217.1      217.8      219.1      218.9      218.6      218.0      216.1
     214.2      210.9      206.8      202.8      197.9      193.8      188.9      183.6      177.3      170.3
     163.4      156.5      149.2      141.3      133.5      125.5      116.3      108.1       98.6       90.3
      80.5       71.2       61.8       51.4       39.8       25.9       14.1        4.8        0.5        0.5
       0.5        0.5        0.5
      26.3       27.9       37.5       49.2       59.3       67.4       74.8       82.3       88.0       91.5
      94.5       97.8      100.1      102.6      104.8      106.9      109.3      111.5      114.8      117.9
     121.9      126.0      130.1      133.8      137.6      141.1      144.2      147.3      150.2      152.2
     154.7      156.4      157.6      159.3      159.7      160.3      160.4      159.9      159.0      157.9
     155.6      153.4      150.1      146.8      144.2      140.6      137.1      132.6      128.1      123.1
     118.2      112.4      107.2      101.4       95.3       89.1       83.2       76.7       69.3       62.4
      53.9       45.9       37.1       28.7       21.0       13.8        7.1        2.0        0.5        0.5
       0.5        0.5        0.5
      26.3       27.8       34.2       41.3       46.2       50.7       55.2       58.4       61.7       63.7
      65.5       66.9       68.7       70.5       71.9       72.9       73.9       74.3       75.6       76.6
      78.0       79.3       80.3       81.7       83.3       84.5       85.9       87.0       88.1       89.8
      90.7       91.3       92.0       92.0       92.3       92.6       92.2       91.9       91.3       90.4
      89.1       87.9       85.9       84.0       82.6       80.2       78.0       75.4       72.7       70.0
      67.1       63.5       60.4       57.0       53.5       49.8       46.1       42.4       38.6       34.6
      30.5       26.7       22.9       19.4       15.2       11.0        6.0        2.0        0.5        0.5
       0.5        0.5        0.5
      26.3       28.3       34.1       37.8       39.5       41.0       41.5       41.3       42.4       43.6
      44.8       45.8       45.9       44.6       43.3       42.2       40.5       38.5       37.3       35.4
      35.0       34.2       33.4       33.0       33.6       33.6       33.3       33.6       33.7       34.1
      34.4       34.3       34.5       34.5       34.2       34.5       34.4       34.2       33.6       33.2
      33.0       32.2       32.2       31.6       30.5       29.9       29.2       28.0       27.2       25.7
      24.9       23.3       22.1       21.4       19.9       18.8       16.8       15.7       14.0       13.3
      11.4       10.1        9.0        6.8        5.1        3.4        0.8        0.5        0.5        0.5
       0.5        0.5        0.5
      26.3       27.8       30.4       30.4       29.8       30.5       31.8       33.5       32.7       31.2
      29.2       26.7       24.0       21.1       18.4       16.2       13.9       12.2       10.2        8.8
       7.6        6.5        5.8        5.1        4.4        3.9        3.4        2.9        3.0        2.7
       2.5        2.1        1.9        1.9        1.8        1.2        1.2        1.3        1.2        1.7
       1.2        1.3        1.0        0.8        1.3        1.1        0.7        1.0        0.9        0.5
       0.6        0.5        0.5        0.5        0.5        0.5        0.5        0.5        0.5        0.5
       0.5        0.5        0.5        0.5        0.5        0.5        0.5        0.5        0.5        0.5
       0.5        0.5        0.5
      26.3       28.0       29.1       29.4       30.4       32.6       33.2       31.0       28.1       24.9
      21.8       18.5       16.4       13.9       11.8       10.6        9.1        7.0        6.1        5.6
       4.5        3.7        3.1        2.6        1.5        1.7        0.7        0.8        0.5        0.5
       0.5        0.5        0.5        0.5        0.5        0.5        0.5        0.5        0.5        0.5
       0.5        0.5        0.5        0.5        0.5        0.5        0.5        0.5        0.5        0.5
       0.5        0.5        0.5        0.5        0.5        0.5        0.5        0.5        0.5        0.5
       0.5        0.5        0.5        0.5        0.5        0.5        0.5        0.5        0.5        0.5
       0.5        0.5        0.5
      26.3       28.7       31.0       31.2       34.1       34.6       34.0       30.3       26.2       22.5
      19.1       17.0       14.7       12.8       11.2        9.8        8.6        7.1        5.8        5.7
       4.8        4.2        3.0        2.8        2.1        1.7        1.7        1.2        0.8        0.9
       0.5        0.7        0.5        0.5        0.5        0.5        0.5        0.5        0.5        0.5
       0.5        0.5        0.5        0.5        0.5        0.5        0.5        0.5        0.5        0.5
       0.5        0.5        0.5        0.5        0.5        0.5        0.5        0.5        0.5        0.5
       0.5        0.5        0.5        0.5        0.5        0.5        0.5        0.5        0.5        0.5
       0.5        0.5        0.5
      26.3       28.0       29.1       29.4       30.4       32.6       33.2       31.0       28.1       24.9
      21.8       18.5       16.4       13.9       11.8       10.6        9.1        7.0        6.1        5.6
       4.5        3.7        3.1        2.6        1.5        1.7        0.7        0.8        0.5        0.5
       0.5        0.5        0.5        0.5        0.5        0.5        0.5        0.5        0.5        0.5
       0.5        0.5        0.5        0.5        0.5        0.5        0.5        0.5        0.5        0.5
       0.5        0.5        0.5        0.5        0.5        0.5        0.5        0.5        0.5        0.5
       0.5        0.5        0.5        0.5        0.5        0.5        0.5        0.5        0.5        0.5
       0.5        0.5        0.5
      26.3       27.8       30.4       30.4       29.8       30.5       31.8       33.5       32.7       31.2
      29.2       26.7       24.0       21.1       18.4       16.2       13.9       12.2       10.2        8.8
       7.6        6.5        5.8        5.1        4.4        3.9        3.4        2.9        3.0        2.7
       2.5        2.1        1.9        1.9        1.8        1.2        1.2        1.3        1.2        1.7
       1.2        1.3        1.0        0.8        1.3        1.1        0.7        1.0        0.9        0.5
       0.6        0.5        0.5        0.5        0.5        0.5        0.5        0.5        0.5        0.5
       0.5        0.5        0.5        0.5        0.5        0.5        0.5        0.5        0.5        0.5
       0.5        0.5        0.5
      26.3       28.3       34.1       37.8       39.5       41.0       41.5       41.3       42.4       43.6
      44.8       45.8       45.9       44.6       43.3       42.2       40.5       38.5       37.3       35.4
      35.0       34.2       33.4       33.0       33.6       33.6       33.3       33.6       33.7       34.1
      34.4       34.3       34.5       34.5       34.2       34.5       34.4       34.2       33.6       33.2
      33.0       32.2       32.2       31.6       30.5       29.9       29.2       28.0       27.2       25.7
      24.9       23.3       22.1       21.4       19.9       18.8       16.8       15.7       14.0       13.3
      11.4       10.1        9.0        6.8        5.1        3.4        0.8        0.5        0.5        0.5
       0.5        0.5        0.5
      26.3       27.8       34.2       41.3       46.2       50.7       55.2       58.4       61.7       63.7
      65.5       66.9       68.7       70.5       71.9       72.9       73.9       74.3       75.6       76.6
      78.0       79.3       80.3       81.7       83.3       84.5       85.9       87.0       88.1       89.8
      90.7       91.3       92.0       92.0       92.3       92.6       92.2       91.9       91.3       90.4
      89.1       87.9       85.9       84.0       82.6       80.2       78.0       75.4       72.7       70.0
      67.1       63.5       60.4       57.0       53.5       49.8       46.1       42.4       38.6       34.6
      30.5       26.7       22.9       19.4       15.2       11.0        6.0        2.0        0.5        0.5
       0.5        0.5        0.5
