IESNA:LM-63-1995
[TEST]     19388
[MANUFAC]COOPER LIGHTING - SHAPER                                 
[LUMCAT]673-WP-CF2/26-BC                                                                
[LUMINAIRE]EXTERIOR WALL MOUNT LUMINAIRE WITH WHITE INTERIOR AND WHITE PLASTIC LENS                                      
[LAMP]TWO SYLVANIA 26 WATT CPFL LAMPS                                                 
[LAMPCAT]CF26DD/E/830. LUMEN RATING = 3600 LMS.                                          
[OTHER]ONE UNIVERSAL C2642UNVSE BALLAST OPERATING AT 120 VAC AND 44 WATTS              
TILT=NONE
1
      3600
1
73
17
1
1
  0.00
  0.00
  0.00
1
1
   44.0000
0 2.5 5 7.5 10 12.5 15 17.5 20 22.5 25 27.5 30 32.5 35 37.5
40 42.5 45 47.5 50 52.5 55 57.5 60 62.5 65 67.5 70 72.5 75
77.5 80 82.5 85 87.5 90 92.5 95 97.5 100 102.5 105 107.5 110
112.5 115 117.5 120 122.5 125 127.5 130 132.5 135 137.5 140
142.5 145 147.5 150 152.5 155 157.5 160 162.5 165 167.5 170
172.5 175 177.5 180
0 22.5 45 67.5 90 112.5 135 157.5 180 202.5 225 247.5
270 292.5 315 337.5 360
       1.5        2.4        3.5        8.4       13.7       18.3       24.3       29.1       33.4       38.9
      44.1       49.6       55.0       59.9       65.0       70.2       75.0       80.4       85.3       89.8
      94.5       98.9      102.5      106.4      110.9      114.1      117.3      120.1      123.1      125.0
     127.5      129.2      130.9      131.5      132.5      133.3      133.5      133.5      132.6      131.9
     130.7      129.2      127.2      125.3      122.6      119.8      117.2      113.6      110.5      107.2
     103.3       99.2       95.3       90.4       86.1       81.5       76.2       71.6       66.4       61.3
      56.3       51.1       46.0       41.3       36.2       31.1       26.3       21.7       16.4       11.4
       5.7        2.8        1.5
       1.5        1.5        5.2       13.8       21.3       29.2       38.0       46.0       54.4       62.5
      71.1       79.4       88.6       97.6      106.2      113.9      122.9      131.6      139.4      146.7
     155.3      162.6      169.1      175.6      183.2      189.3      194.6      199.5      204.5      207.9
     212.0      215.8      218.5      219.9      221.3      223.4      223.8      223.8      222.3      221.6
     219.5      216.9      214.0      210.6      206.0      201.5      197.7      191.6      186.5      179.6
     173.2      166.3      159.2      152.3      145.1      137.3      129.0      120.9      112.1      103.9
      95.1       86.8       78.0       69.2       60.6       52.5       44.6       36.4       28.9       21.1
      13.2        4.0        1.5
       1.5        2.2        4.8       15.6       27.2       37.2       47.0       57.2       69.2       79.8
      90.6      102.1      113.3      124.1      135.1      147.2      157.8      168.7      179.3      189.3
     198.5      207.9      218.3      226.7      234.6      242.1      250.3      256.8      262.9      268.0
     272.8      277.6      281.1      283.7      285.6      287.0      287.6      287.8      287.0      285.4
     282.5      279.3      275.6      271.1      265.6      260.1      254.0      247.5      239.9      232.2
     223.4      214.8      206.0      196.3      186.5      176.5      164.9      154.5      143.2      133.0
     121.3      111.0       99.0       88.8       77.8       67.4       56.8       46.2       36.2       26.2
      15.2        4.4        1.5
       1.5        0.9        5.0       16.2       28.2       41.1       53.1       65.6       78.6       91.3
     103.9      116.3      129.4      143.7      156.5      168.7      181.2      194.6      206.5      217.7
     230.3      241.1      250.9      260.9      271.7      280.5      288.1      295.6      302.7      309.6
     315.0      319.6      323.7      327.0      329.4      330.4      330.8      331.1      330.7      328.8
     325.1      321.5      317.8      312.9      306.8      300.3      293.7      285.0      276.8      267.0
     257.2      247.5      237.0      226.4      215.1      203.2      190.2      178.3      165.3      152.8
     139.6      126.9      113.9      101.2       89.6       76.8       64.7       52.5       40.7       28.9
      16.0        4.2        1.5
       1.5        0.5        3.6       14.4       28.1       40.5       53.5       67.0       80.8       93.9
     107.2      121.4      134.9      148.2      161.4      176.1      188.9      201.4      215.1      227.1
     238.3      250.5      261.5      271.3      282.3      291.5      299.4      307.8      314.1      321.6
     327.1      332.1      335.5      339.8      341.8      343.7      344.5      344.5      342.7      340.8
     338.4      334.7      329.7      324.6      318.4      311.7      304.5      296.4      287.4      276.8
     267.0      257.2      246.0      234.8      222.7      210.6      196.9      184.2      171.0      157.8
     144.2      130.8      117.6      104.3       91.5       78.0       66.0       52.7       40.3       27.6
      14.2        2.3        1.5
       1.5        0.9        5.0       16.2       28.2       41.1       53.1       65.6       78.6       91.3
     103.9      116.3      129.4      143.7      156.5      168.7      181.2      194.6      206.5      217.7
     230.3      241.1      250.9      260.9      271.7      280.5      288.1      295.6      302.7      309.6
     315.0      319.6      323.7      327.0      329.4      330.4      330.8      331.1      330.7      328.8
     325.1      321.5      317.8      312.9      306.8      300.3      293.7      285.0      276.8      267.0
     257.2      247.5      237.0      226.4      215.1      203.2      190.2      178.3      165.3      152.8
     139.6      126.9      113.9      101.2       89.6       76.8       64.7       52.5       40.7       28.9
      16.0        4.2        1.5
       1.5        2.2        4.8       15.6       27.2       37.2       47.0       57.2       69.2       79.8
      90.6      102.1      113.3      124.1      135.1      147.2      157.8      168.7      179.3      189.3
     198.5      207.9      218.3      226.7      234.6      242.1      250.3      256.8      262.9      268.0
     272.8      277.6      281.1      283.7      285.6      287.0      287.6      287.8      287.0      285.4
     282.5      279.3      275.6      271.1      265.6      260.1      254.0      247.5      239.9      232.2
     223.4      214.8      206.0      196.3      186.5      176.5      164.9      154.5      143.2      133.0
     121.3      111.0       99.0       88.8       77.8       67.4       56.8       46.2       36.2       26.2
      15.2        4.4        1.5
       1.5        1.5        5.2       13.8       21.3       29.2       38.0       46.0       54.4       62.5
      71.1       79.4       88.6       97.6      106.2      113.9      122.9      131.6      139.4      146.7
     155.3      162.6      169.1      175.6      183.2      189.3      194.6      199.5      204.5      207.9
     212.0      215.8      218.5      219.9      221.3      223.4      223.8      223.8      222.3      221.6
     219.5      216.9      214.0      210.6      206.0      201.5      197.7      191.6      186.5      179.6
     173.2      166.3      159.2      152.3      145.1      137.3      129.0      120.9      112.1      103.9
      95.1       86.8       78.0       69.2       60.6       52.5       44.6       36.4       28.9       21.1
      13.2        4.0        1.5
       1.5        2.4        3.5        8.4       13.7       18.3       24.3       29.1       33.4       38.9
      44.1       49.6       55.0       59.9       65.0       70.2       75.0       80.4       85.3       89.8
      94.5       98.9      102.5      106.4      110.9      114.1      117.3      120.1      123.1      125.0
     127.5      129.2      130.9      131.5      132.5      133.3      133.5      133.5      132.6      131.9
     130.7      129.2      127.2      125.3      122.6      119.8      117.2      113.6      110.5      107.2
     103.3       99.2       95.3       90.4       86.1       81.5       76.2       71.6       66.4       61.3
      56.3       51.1       46.0       41.3       36.2       31.1       26.3       21.7       16.4       11.4
       5.7        2.8        1.5
       1.5        1.5        2.6        3.3        6.0        8.4       10.1       11.9       14.6       16.5
      18.5       20.3       22.5       24.6       26.6       28.5       30.1       32.6       34.4       36.2
      37.7       39.7       40.5       41.9       44.2       44.8       46.6       47.4       48.0       49.7
      49.9       51.1       51.3       52.1       52.3       52.3       52.5       52.5       52.3       51.7
      51.5       50.7       50.1       49.3       48.4       46.6       46.0       44.6       43.8       42.1
      40.9       39.3       37.7       35.6       34.2       32.2       30.3       28.2       26.4       24.1
      22.0       20.9       18.0       17.0       15.0       12.9       10.3        8.7        6.0        3.8
       2.2        2.3        1.5
       1.5        1.8        1.9        1.9        1.5        1.9        1.9        2.2        2.3        2.8
       3.0        3.2        3.6        3.6        3.8        4.2        4.4        4.4        4.6        4.8
       4.8        5.4        4.8        5.0        5.8        5.6        6.3        5.6        5.8        6.0
       6.0        6.4        6.3        7.0        6.4        7.0        6.8        6.6        7.0        6.4
       7.0        6.4        7.0        6.3        6.8        6.0        6.4        6.4        6.4        6.3
       5.8        6.0        5.0        5.6        4.8        4.4        4.4        4.0        4.0        4.0
       3.3        4.0        3.3        3.3        3.0        3.0        2.3        2.3        2.2        1.8
       1.5        2.2        1.5
       1.5        1.2        1.3        1.2        1.2        0.9        1.3        1.3        0.8        1.2
       1.3        0.5        0.9        0.5        0.5        1.3        1.3        0.5        0.9        0.8
       1.3        1.3        1.2        1.3        0.9        0.9        1.2        0.5        0.9        0.8
       0.5        1.2        0.8        1.3        1.2        1.5        1.5        0.9        1.5        1.2
       1.5        0.9        1.5        0.9        1.5        0.9        0.9        0.8        1.3        1.2
       1.3        0.9        1.5        0.9        0.9        0.9        0.8        1.2        0.9        1.3
       1.2        1.3        1.3        0.8        0.5        0.8        0.5        0.5        0.8        0.8
       0.8        0.5        1.5
       1.5        0.5        0.5        0.5        0.5        0.5        0.5        0.5        0.5        0.5
       0.5        0.5        0.5        0.5        0.5        0.5        0.5        0.5        0.5        0.5
       0.5        0.5        0.5        0.5        0.5        0.5        0.5        0.5        0.5        0.5
       0.5        0.5        0.5        0.5        0.5        0.5        0.5        0.5        0.5        0.5
       0.5        0.5        0.5        0.5        0.5        0.5        0.5        0.5        0.5        0.5
       0.5        0.5        0.5        0.5        0.5        0.5        0.5        0.5        0.5        0.5
       0.5        0.5        0.5        0.5        0.5        0.5        0.5        0.5        0.5        0.5
       0.5        0.5        1.5
       1.5        1.2        1.3        1.2        1.2        0.9        1.3        1.3        0.8        1.2
       1.3        0.5        0.9        0.5        0.5        1.3        1.3        0.5        0.9        0.8
       1.3        1.3        1.2        1.3        0.9        0.9        1.2        0.5        0.9        0.8
       0.5        1.2        0.8        1.3        1.2        1.5        1.5        0.9        1.5        1.2
       1.5        0.9        1.5        0.9        1.5        0.9        0.9        0.8        1.3        1.2
       1.3        0.9        1.5        0.9        0.9        0.9        0.8        1.2        0.9        1.3
       1.2        1.3        1.3        0.8        0.5        0.8        0.5        0.5        0.8        0.8
       0.8        0.5        1.5
       1.5        1.8        1.9        1.9        1.5        1.9        1.9        2.2        2.3        2.8
       3.0        3.2        3.6        3.6        3.8        4.2        4.4        4.4        4.6        4.8
       4.8        5.4        4.8        5.0        5.8        5.6        6.3        5.6        5.8        6.0
       6.0        6.4        6.3        7.0        6.4        7.0        6.8        6.6        7.0        6.4
       7.0        6.4        7.0        6.3        6.8        6.0        6.4        6.4        6.4        6.3
       5.8        6.0        5.0        5.6        4.8        4.4        4.4        4.0        4.0        4.0
       3.3        4.0        3.3        3.3        3.0        3.0        2.3        2.3        2.2        1.8
       1.5        2.2        1.5
       1.5        1.5        2.6        3.3        6.0        8.4       10.1       11.9       14.6       16.5
      18.5       20.3       22.5       24.6       26.6       28.5       30.1       32.6       34.4       36.2
      37.7       39.7       40.5       41.9       44.2       44.8       46.6       47.4       48.0       49.7
      49.9       51.1       51.3       52.1       52.3       52.3       52.5       52.5       52.3       51.7
      51.5       50.7       50.1       49.3       48.4       46.6       46.0       44.6       43.8       42.1
      40.9       39.3       37.7       35.6       34.2       32.2       30.3       28.2       26.4       24.1
      22.0       20.9       18.0       17.0       15.0       12.9       10.3        8.7        6.0        3.8
       2.2        2.3        1.5
       1.5        2.4        3.5        8.4       13.7       18.3       24.3       29.1       33.4       38.9
      44.1       49.6       55.0       59.9       65.0       70.2       75.0       80.4       85.3       89.8
      94.5       98.9      102.5      106.4      110.9      114.1      117.3      120.1      123.1      125.0
     127.5      129.2      130.9      131.5      132.5      133.3      133.5      133.5      132.6      131.9
     130.7      129.2      127.2      125.3      122.6      119.8      117.2      113.6      110.5      107.2
     103.3       99.2       95.3       90.4       86.1       81.5       76.2       71.6       66.4       61.3
      56.3       51.1       46.0       41.3       36.2       31.1       26.3       21.7       16.4       11.4
       5.7        2.8        1.5
