IESNA:LM-63-1995
[TEST]    20061A
[MANUFAC]COOPER LIGHTING - SHAPER                                
[LUMCAT]698-RD-CF2/26                                                                   
[LUMINAIRE]INTERIOR WALL MOUNT LUMINAIRE WITH WHITE INTERIOR AND WHITE PLASTIC LENS                                      
[LAMP]TWO 26 WATT CPFL LAMPS. LUMEN RATING = 3600 LMS.                                
[OTHER]SIMULATED REPORT FROM TEST WITH 2 - 13 WATT LAMPS                               
TILT=NONE
1
      3600
1
73
17
1
1
  0.21
  0.83
  0.83
1
1
    0.0000
0 2.5 5 7.5 10 12.5 15 17.5 20 22.5 25 27.5 30 32.5 35 37.5
40 42.5 45 47.5 50 52.5 55 57.5 60 62.5 65 67.5 70 72.5 75
77.5 80 82.5 85 87.5 90 92.5 95 97.5 100 102.5 105 107.5 110
112.5 115 117.5 120 122.5 125 127.5 130 132.5 135 137.5 140
142.5 145 147.5 150 152.5 155 157.5 160 162.5 165 167.5 170
172.5 175 177.5 180
0 22.5 45 67.5 90 112.5 135 157.5 180 202.5 225 247.5
270 292.5 315 337.5 360
     112.3      113.0      139.0      150.4      165.0      176.6      184.9      192.3      198.5      207.8
     217.9      229.6      241.5      255.5      269.5      283.8      299.9      316.9      332.9      350.6
     368.3      384.1      401.4      416.0      429.7      441.6      452.8      462.3      470.5      476.4
     482.5      487.3      490.0      491.0      492.4      493.4      494.3      493.1      492.5      491.3
     487.3      484.3      479.7      472.7      462.9      453.7      443.2      431.7      418.7      402.9
     387.9      370.3      353.2      336.0      317.5      299.1      278.9      261.4      245.1      228.7
     212.8      199.7      185.9      173.5      159.9      150.2      143.2      134.5      128.6      117.7
     101.4       89.1       69.7
     112.3      114.5      139.9      150.2      165.1      175.8      183.9      190.7      196.5      203.3
     211.5      223.3      233.9      244.8      256.9      271.7      285.3      298.5      313.9      328.8
     344.0      359.0      374.6      388.5      402.3      415.0      425.5      435.7      444.8      452.4
     458.9      464.7      468.7      471.1      473.2      475.3      475.6      474.8      469.2      460.3
     455.2      450.6      443.8      436.3      428.3      418.8      407.8      395.8      382.7      367.6
     353.1      336.1      320.6      303.6      287.7      271.7      257.0      241.8      227.7      213.1
     200.2      186.5      174.8      163.5      155.4      147.2      139.7      133.2      126.4      112.7
      97.8       86.1       69.7
     112.3      112.7      133.2      144.8      153.1      164.4      174.2      180.6      186.5      191.3
     197.7      202.3      209.1      216.7      224.6      231.5      239.8      249.8      258.9      268.2
     276.5      286.2      296.6      305.1      313.4      321.7      329.7      336.8      342.3      349.5
     354.5      358.1      361.8      364.0      365.6      367.1      367.0      359.9      359.1      350.2
     344.4      336.1      330.6      324.3      318.7      311.4      302.8      295.1      286.5      275.4
     267.1      255.9      245.1      235.4      225.2      215.2      206.0      196.6      187.4      177.3
     169.3      161.4      154.7      148.0      143.9      138.1      131.0      124.0      113.7      100.8
      95.2       80.2       69.7
     112.3      109.6      120.0      132.4      140.8      145.7      150.2      157.0      164.1      169.9
     174.8      179.1      182.5      187.3      190.2      195.3      198.7      202.5      206.6      210.4
     213.4      217.4      220.8      224.0      227.2      230.0      231.8      233.7      236.5      237.5
     238.4      240.3      240.7      240.7      240.4      240.1      239.4      234.1      227.5      225.9
     223.8      221.9      217.7      214.9      212.6      209.2      204.8      202.1      197.5      193.7
     188.4      184.5      179.7      175.1      170.4      165.6      159.3      155.3      149.8      146.6
     141.8      137.7      132.1      125.0      119.7      111.8      104.7      102.9       99.5       88.9
      80.2       72.2       69.7
     112.3      108.3      107.9      108.4      108.3      109.7      109.7      110.9      111.3      112.0
     113.1      114.6      116.0      117.1      119.2      120.8      122.1      125.3      126.8      128.1
     129.7      131.2      133.3      134.4      134.4      135.6      135.9      136.7      136.2      136.8
     136.5      136.2      135.1      134.2      132.8      132.3      132.7      129.3      128.7      127.6
     126.7      125.7      123.1      122.2      119.7      118.3      115.3      113.6      112.0      109.8
     107.5      105.0      102.9       99.1       96.7       94.9       92.1       90.2       87.7       85.9
      83.4       82.3       80.4       78.4       76.8       76.1       74.2       73.7       73.2       73.2
      73.4       72.5       69.7
     112.3      115.0      124.3      131.8      139.0      144.1      147.6      150.2      151.7      152.3
     152.0      153.4      153.6      153.4      153.4      153.4      153.4      152.2      152.0      151.6
     151.7      150.7      150.3      150.4      149.5      149.1      147.8      147.9      146.9      146.0
     144.1      143.6      141.2      140.6      138.8      137.2      136.2      147.9      146.0      144.8
     144.8      142.2      141.8      139.4      138.2      137.4      136.5      134.8      133.4      131.8
     129.2      128.9      126.7      126.5      123.7      121.9      120.6      118.8      117.3      116.6
     114.6      113.7      112.1      112.2      110.3      109.3      106.9      102.5       98.6       91.9
      83.7       72.9       69.7
     112.3      126.8      139.4      148.0      152.0      152.0      152.8      152.3      150.7      149.8
     147.3      143.8      142.2      139.3      136.9      135.7      134.1      132.3      131.3      130.2
     129.0      128.3      126.5      126.2      124.7      124.4      123.0      122.8      122.3      121.2
     120.7      119.1      118.3      116.7      115.8      114.0      113.0      116.3      115.4      115.2
     114.0      113.9      112.4      111.6      110.2      108.8      106.6      105.6      105.7      104.7
     104.2      102.3      101.7      100.1      100.5      100.7       99.8      100.8      100.7      101.7
     102.6      103.6      105.4      105.3      106.6      105.6      105.9      106.8      104.2      100.2
      92.4       75.7       69.7
     112.3      135.0      147.0      152.0      153.7      153.4      152.0      149.5      145.7      141.5
     137.5      134.7      131.4      128.0      125.6      122.3      120.7      120.3      119.6      118.8
     117.2      116.3      114.2      112.6      110.2      108.1      105.4      102.9       99.7       97.5
      95.0       93.7       91.1       88.9       87.7       85.7       84.9       86.7       87.0       86.7
      87.7       87.6       89.1       88.6       88.9       90.3       91.3       91.9       91.6       91.9
      91.9       91.6       90.6       90.8       89.1       88.2       87.0       87.9       88.0       90.3
      90.6       92.7       94.3       98.0      100.9      102.9      105.1      104.1      105.3      102.3
      94.7       75.3       69.7
     112.3      137.4      149.2      153.3      153.6      151.2      149.5      146.9      142.4      138.5
     134.1      131.1      127.0      125.0      122.3      119.1      118.0      117.7      116.0      114.0
     112.2      109.5      105.6      102.2       97.5       93.5       88.3       84.6       80.2       74.8
      70.8       65.8       61.8       56.7       53.0       49.7       49.7       47.6       51.3       53.6
      58.0       60.0       64.2       66.1       69.9       71.1       74.1       75.9       78.7       80.3
      82.7       82.7       84.3       84.9       85.1       85.2       86.0       84.9       86.6       86.3
      88.5       89.3       92.2       93.5       97.7      100.2      102.8      104.5      104.7      104.5
      96.7       77.5       69.7
     112.3      135.0      147.0      152.0      153.7      153.4      152.0      149.5      145.7      141.5
     137.5      134.7      131.4      128.0      125.6      122.3      120.7      120.3      119.6      118.8
     117.2      116.3      114.2      112.6      110.2      108.1      105.4      102.9       99.7       97.5
      95.0       93.7       91.1       88.9       87.7       85.7       84.9       86.7       87.0       86.7
      87.7       87.6       89.1       88.6       88.9       90.3       91.3       91.9       91.6       91.9
      91.9       91.6       90.6       90.8       89.1       88.2       87.0       87.9       88.0       90.3
      90.6       92.7       94.3       98.0      100.9      102.9      105.1      104.1      105.3      102.3
      94.7       75.3       69.7
     112.3      126.8      139.4      148.0      152.0      152.0      152.8      152.3      150.7      149.8
     147.3      143.8      142.2      139.3      136.9      135.7      134.1      132.3      131.3      130.2
     129.0      128.3      126.5      126.2      124.7      124.4      123.0      122.8      122.3      121.2
     120.7      119.1      118.3      116.7      115.8      114.0      113.0      116.3      115.4      115.2
     114.0      113.9      112.4      111.6      110.2      108.8      106.6      105.6      105.7      104.7
     104.2      102.3      101.7      100.1      100.5      100.7       99.8      100.8      100.7      101.7
     102.6      103.6      105.4      105.3      106.6      105.6      105.9      106.8      104.2      100.2
      92.4       75.7       69.7
     112.3      115.0      124.3      131.8      139.0      144.1      147.6      150.2      151.7      152.3
     152.0      153.4      153.6      153.4      153.4      153.4      153.4      152.2      152.0      151.6
     151.7      150.7      150.3      150.4      149.5      149.1      147.8      147.9      146.9      146.0
     144.1      143.6      141.2      140.6      138.8      137.2      136.2      147.9      146.0      144.8
     144.8      142.2      141.8      139.4      138.2      137.4      136.5      134.8      133.4      131.8
     129.2      128.9      126.7      126.5      123.7      121.9      120.6      118.8      117.3      116.6
     114.6      113.7      112.1      112.2      110.3      109.3      106.9      102.5       98.6       91.9
      83.7       72.9       69.7
     112.3      108.3      107.9      108.4      108.3      109.7      109.7      110.9      111.3      112.0
     113.1      114.6      116.0      117.1      119.2      120.8      122.1      125.3      126.8      128.1
     129.7      131.2      133.3      134.4      134.4      135.6      135.9      136.7      136.2      136.8
     136.5      136.2      135.1      134.2      132.8      132.3      132.7      129.3      128.7      127.6
     126.7      125.7      123.1      122.2      119.7      118.3      115.3      113.6      112.0      109.8
     107.5      105.0      102.9       99.1       96.7       94.9       92.1       90.2       87.7       85.9
      83.4       82.3       80.4       78.4       76.8       76.1       74.2       73.7       73.2       73.2
      73.4       72.5       69.7
     112.3      109.6      120.0      132.4      140.8      145.7      150.2      157.0      164.1      169.9
     174.8      179.1      182.5      187.3      190.2      195.3      198.7      202.5      206.6      210.4
     213.4      217.4      220.8      224.0      227.2      230.0      231.8      233.7      236.5      237.5
     238.4      240.3      240.7      240.7      240.4      240.1      239.4      234.1      227.5      225.9
     223.8      221.9      217.7      214.9      212.6      209.2      204.8      202.1      197.5      193.7
     188.4      184.5      179.7      175.1      170.4      165.6      159.3      155.3      149.8      146.6
     141.8      137.7      132.1      125.0      119.7      111.8      104.7      102.9       99.5       88.9
      80.2       72.2       69.7
     112.3      112.7      133.2      144.8      153.1      164.4      174.2      180.6      186.5      191.3
     197.7      202.3      209.1      216.7      224.6      231.5      239.8      249.8      258.9      268.2
     276.5      286.2      296.6      305.1      313.4      321.7      329.7      336.8      342.3      349.5
     354.5      358.1      361.8      364.0      365.6      367.1      367.0      359.9      359.1      350.2
     344.4      336.1      330.6      324.3      318.7      311.4      302.8      295.1      286.5      275.4
     267.1      255.9      245.1      235.4      225.2      215.2      206.0      196.6      187.4      177.3
     169.3      161.4      154.7      148.0      143.9      138.1      131.0      124.0      113.7      100.8
      95.2       80.2       69.7
     112.3      114.5      139.9      150.2      165.1      175.8      183.9      190.7      196.5      203.3
     211.5      223.3      233.9      244.8      256.9      271.7      285.3      298.5      313.9      328.8
     344.0      359.0      374.6      388.5      402.3      415.0      425.5      435.7      444.8      452.4
     458.9      464.7      468.7      471.1      473.2      475.3      475.6      474.8      469.2      460.3
     455.2      450.6      443.8      436.3      428.3      418.8      407.8      395.8      382.7      367.6
     353.1      336.1      320.6      303.6      287.7      271.7      257.0      241.8      227.7      213.1
     200.2      186.5      174.8      163.5      155.4      147.2      139.7      133.2      126.4      112.7
      97.8       86.1       69.7
     112.3      113.0      139.0      150.4      165.0      176.6      184.9      192.3      198.5      207.8
     217.9      229.6      241.5      255.5      269.5      283.8      299.9      316.9      332.9      350.6
     368.3      384.1      401.4      416.0      429.7      441.6      452.8      462.3      470.5      476.4
     482.5      487.3      490.0      491.0      492.4      493.4      494.3      493.1      492.5      491.3
     487.3      484.3      479.7      472.7      462.9      453.7      443.2      431.7      418.7      402.9
     387.9      370.3      353.2      336.0      317.5      299.1      278.9      261.4      245.1      228.7
     212.8      199.7      185.9      173.5      159.9      150.2      143.2      134.5      128.6      117.7
     101.4       89.1       69.7
