IESNA:LM-63-1995
[TEST]     20061
[MANUFAC]COOPER LIGHTING - SHAPER                                
[LUMCAT]698-RD-CF2/13                                                                   
[LUMINAIRE]INTERIOR WALL MOUNT LUMINAIRE WITH WHITE INTERIOR AND WHITE PLASTIC LENS                                      
[LAMP]TWO SYLVANIA 13 WATT CPFL LAMPS                                                 
[LAMPCAT]CF13DS/E/830. LUMEN RATING = 1600 LMS.                                          
[OTHER]ONE UNIVERSAL CT213UNVSE BALLAST OPERATING AT 120 VAC AND 28 WATTS              
TILT=NONE
1
      1600
1
73
17
1
1
  0.21
  0.83
  0.83
1
1
   28.0000
0 2.5 5 7.5 10 12.5 15 17.5 20 22.5 25 27.5 30 32.5 35 37.5
40 42.5 45 47.5 50 52.5 55 57.5 60 62.5 65 67.5 70 72.5 75
77.5 80 82.5 85 87.5 90 92.5 95 97.5 100 102.5 105 107.5 110
112.5 115 117.5 120 122.5 125 127.5 130 132.5 135 137.5 140
142.5 145 147.5 150 152.5 155 157.5 160 162.5 165 167.5 170
172.5 175 177.5 180
0 22.5 45 67.5 90 112.5 135 157.5 180 202.5 225 247.5
270 292.5 315 337.5 360
      49.9       50.2       61.8       66.8       73.3       78.5       82.2       85.5       88.2       92.3
      96.8      102.0      107.3      113.5      119.8      126.1      133.3      140.9      147.9      155.8
     163.7      170.7      178.4      184.9      191.0      196.3      201.3      205.5      209.1      211.8
     214.5      216.6      217.8      218.2      218.8      219.3      219.7      219.2      218.9      218.3
     216.6      215.3      213.2      210.1      205.7      201.7      197.0      191.9      186.1      179.1
     172.4      164.6      157.0      149.3      141.1      132.9      124.0      116.2      108.9      101.6
      94.6       88.8       82.6       77.1       71.1       66.7       63.6       59.8       57.2       52.3
      45.1       39.6       31.0
      49.9       50.9       62.2       66.7       73.4       78.1       81.7       84.7       87.3       90.4
      94.0       99.3      104.0      108.8      114.2      120.7      126.8      132.7      139.5      146.2
     152.9      159.5      166.5      172.7      178.8      184.4      189.1      193.7      197.7      201.1
     204.0      206.5      208.3      209.4      210.3      211.2      211.4      211.0      208.5      204.6
     202.3      200.3      197.2      193.9      190.4      186.1      181.2      175.9      170.1      163.4
     156.9      149.4      142.5      134.9      127.8      120.7      114.2      107.5      101.2       94.7
      89.0       82.9       77.7       72.7       69.1       65.4       62.1       59.2       56.2       50.1
      43.5       38.3       31.0
      49.9       50.1       59.2       64.4       68.0       73.1       77.4       80.3       82.9       85.0
      87.9       89.9       92.9       96.3       99.8      102.9      106.6      111.0      115.1      119.2
     122.9      127.2      131.8      135.6      139.3      143.0      146.5      149.7      152.2      155.3
     157.6      159.2      160.8      161.8      162.5      163.2      163.1      159.9      159.6      155.6
     153.0      149.4      146.9      144.2      141.7      138.4      134.6      131.1      127.3      122.4
     118.7      113.7      108.9      104.6      100.1       95.6       91.6       87.4       83.3       78.8
      75.3       71.7       68.8       65.8       63.9       61.4       58.2       55.1       50.5       44.8
      42.3       35.6       31.0
      49.9       48.7       53.3       58.9       62.6       64.7       66.7       69.8       72.9       75.5
      77.7       79.6       81.1       83.2       84.6       86.8       88.3       90.0       91.8       93.5
      94.9       96.6       98.2       99.5      101.0      102.2      103.0      103.9      105.1      105.5
     105.9      106.8      107.0      107.0      106.9      106.7      106.4      104.0      101.1      100.4
      99.5       98.6       96.7       95.5       94.5       93.0       91.0       89.8       87.8       86.1
      83.7       82.0       79.8       77.8       75.7       73.6       70.8       69.0       66.6       65.1
      63.0       61.2       58.7       55.6       53.2       49.7       46.5       45.7       44.2       39.5
      35.6       32.1       31.0
      49.9       48.1       47.9       48.2       48.1       48.7       48.8       49.3       49.5       49.8
      50.3       50.9       51.6       52.1       53.0       53.7       54.3       55.7       56.4       56.9
      57.6       58.3       59.2       59.7       59.7       60.3       60.4       60.8       60.5       60.8
      60.7       60.5       60.1       59.6       59.0       58.8       59.0       57.5       57.2       56.7
      56.3       55.9       54.7       54.3       53.2       52.6       51.3       50.5       49.8       48.8
      47.8       46.7       45.7       44.0       43.0       42.2       40.9       40.1       39.0       38.2
      37.1       36.6       35.7       34.8       34.1       33.8       33.0       32.8       32.5       32.5
      32.6       32.2       31.0
      49.9       51.1       55.2       58.6       61.8       64.0       65.6       66.7       67.4       67.7
      67.6       68.2       68.2       68.2       68.2       68.2       68.2       67.7       67.6       67.4
      67.4       67.0       66.8       66.8       66.5       66.3       65.7       65.7       65.3       64.9
      64.0       63.8       62.8       62.5       61.7       61.0       60.5       65.7       64.9       64.4
      64.4       63.2       63.0       62.0       61.4       61.1       60.7       59.9       59.3       58.6
      57.4       57.3       56.3       56.2       55.0       54.2       53.6       52.8       52.1       51.8
      50.9       50.5       49.8       49.9       49.0       48.6       47.5       45.5       43.8       40.9
      37.2       32.4       31.0
      49.9       56.4       62.0       65.8       67.6       67.6       67.9       67.7       67.0       66.6
      65.5       63.9       63.2       61.9       60.8       60.3       59.6       58.8       58.4       57.9
      57.4       57.0       56.2       56.1       55.4       55.3       54.6       54.6       54.4       53.9
      53.6       52.9       52.6       51.9       51.5       50.7       50.2       51.7       51.3       51.2
      50.7       50.6       49.9       49.6       49.0       48.4       47.4       46.9       47.0       46.5
      46.3       45.5       45.2       44.5       44.7       44.8       44.3       44.8       44.8       45.2
      45.6       46.0       46.9       46.8       47.4       46.9       47.0       47.5       46.3       44.5
      41.0       33.6       31.0
      49.9       60.0       65.3       67.6       68.3       68.2       67.6       66.5       64.7       62.9
      61.1       59.9       58.4       56.9       55.8       54.4       53.6       53.5       53.1       52.8
      52.1       51.7       50.8       50.0       49.0       48.1       46.9       45.7       44.3       43.3
      42.2       41.6       40.5       39.5       39.0       38.1       37.7       38.5       38.7       38.5
      39.0       38.9       39.6       39.4       39.5       40.1       40.6       40.9       40.7       40.9
      40.9       40.7       40.3       40.4       39.6       39.2       38.7       39.1       39.1       40.1
      40.3       41.2       41.9       43.6       44.9       45.7       46.7       46.3       46.8       45.5
      42.1       33.4       31.0
      49.9       61.1       66.3       68.1       68.2       67.2       66.5       65.3       63.3       61.6
      59.6       58.3       56.4       55.6       54.4       52.9       52.5       52.3       51.5       50.7
      49.9       48.6       46.9       45.4       43.3       41.6       39.3       37.6       35.6       33.3
      31.5       29.2       27.4       25.2       23.6       22.1       22.1       21.2       22.8       23.8
      25.8       26.7       28.6       29.4       31.1       31.6       32.9       33.7       35.0       35.7
      36.7       36.7       37.5       37.7       37.8       37.9       38.2       37.7       38.5       38.3
      39.3       39.7       41.0       41.6       43.4       44.5       45.7       46.5       46.5       46.5
      43.0       34.4       31.0
      49.9       60.0       65.3       67.6       68.3       68.2       67.6       66.5       64.7       62.9
      61.1       59.9       58.4       56.9       55.8       54.4       53.6       53.5       53.1       52.8
      52.1       51.7       50.8       50.0       49.0       48.1       46.9       45.7       44.3       43.3
      42.2       41.6       40.5       39.5       39.0       38.1       37.7       38.5       38.7       38.5
      39.0       38.9       39.6       39.4       39.5       40.1       40.6       40.9       40.7       40.9
      40.9       40.7       40.3       40.4       39.6       39.2       38.7       39.1       39.1       40.1
      40.3       41.2       41.9       43.6       44.9       45.7       46.7       46.3       46.8       45.5
      42.1       33.4       31.0
      49.9       56.4       62.0       65.8       67.6       67.6       67.9       67.7       67.0       66.6
      65.5       63.9       63.2       61.9       60.8       60.3       59.6       58.8       58.4       57.9
      57.4       57.0       56.2       56.1       55.4       55.3       54.6       54.6       54.4       53.9
      53.6       52.9       52.6       51.9       51.5       50.7       50.2       51.7       51.3       51.2
      50.7       50.6       49.9       49.6       49.0       48.4       47.4       46.9       47.0       46.5
      46.3       45.5       45.2       44.5       44.7       44.8       44.3       44.8       44.8       45.2
      45.6       46.0       46.9       46.8       47.4       46.9       47.0       47.5       46.3       44.5
      41.0       33.6       31.0
      49.9       51.1       55.2       58.6       61.8       64.0       65.6       66.7       67.4       67.7
      67.6       68.2       68.2       68.2       68.2       68.2       68.2       67.7       67.6       67.4
      67.4       67.0       66.8       66.8       66.5       66.3       65.7       65.7       65.3       64.9
      64.0       63.8       62.8       62.5       61.7       61.0       60.5       65.7       64.9       64.4
      64.4       63.2       63.0       62.0       61.4       61.1       60.7       59.9       59.3       58.6
      57.4       57.3       56.3       56.2       55.0       54.2       53.6       52.8       52.1       51.8
      50.9       50.5       49.8       49.9       49.0       48.6       47.5       45.5       43.8       40.9
      37.2       32.4       31.0
      49.9       48.1       47.9       48.2       48.1       48.7       48.8       49.3       49.5       49.8
      50.3       50.9       51.6       52.1       53.0       53.7       54.3       55.7       56.4       56.9
      57.6       58.3       59.2       59.7       59.7       60.3       60.4       60.8       60.5       60.8
      60.7       60.5       60.1       59.6       59.0       58.8       59.0       57.5       57.2       56.7
      56.3       55.9       54.7       54.3       53.2       52.6       51.3       50.5       49.8       48.8
      47.8       46.7       45.7       44.0       43.0       42.2       40.9       40.1       39.0       38.2
      37.1       36.6       35.7       34.8       34.1       33.8       33.0       32.8       32.5       32.5
      32.6       32.2       31.0
      49.9       48.7       53.3       58.9       62.6       64.7       66.7       69.8       72.9       75.5
      77.7       79.6       81.1       83.2       84.6       86.8       88.3       90.0       91.8       93.5
      94.9       96.6       98.2       99.5      101.0      102.2      103.0      103.9      105.1      105.5
     105.9      106.8      107.0      107.0      106.9      106.7      106.4      104.0      101.1      100.4
      99.5       98.6       96.7       95.5       94.5       93.0       91.0       89.8       87.8       86.1
      83.7       82.0       79.8       77.8       75.7       73.6       70.8       69.0       66.6       65.1
      63.0       61.2       58.7       55.6       53.2       49.7       46.5       45.7       44.2       39.5
      35.6       32.1       31.0
      49.9       50.1       59.2       64.4       68.0       73.1       77.4       80.3       82.9       85.0
      87.9       89.9       92.9       96.3       99.8      102.9      106.6      111.0      115.1      119.2
     122.9      127.2      131.8      135.6      139.3      143.0      146.5      149.7      152.2      155.3
     157.6      159.2      160.8      161.8      162.5      163.2      163.1      159.9      159.6      155.6
     153.0      149.4      146.9      144.2      141.7      138.4      134.6      131.1      127.3      122.4
     118.7      113.7      108.9      104.6      100.1       95.6       91.6       87.4       83.3       78.8
      75.3       71.7       68.8       65.8       63.9       61.4       58.2       55.1       50.5       44.8
      42.3       35.6       31.0
      49.9       50.9       62.2       66.7       73.4       78.1       81.7       84.7       87.3       90.4
      94.0       99.3      104.0      108.8      114.2      120.7      126.8      132.7      139.5      146.2
     152.9      159.5      166.5      172.7      178.8      184.4      189.1      193.7      197.7      201.1
     204.0      206.5      208.3      209.4      210.3      211.2      211.4      211.0      208.5      204.6
     202.3      200.3      197.2      193.9      190.4      186.1      181.2      175.9      170.1      163.4
     156.9      149.4      142.5      134.9      127.8      120.7      114.2      107.5      101.2       94.7
      89.0       82.9       77.7       72.7       69.1       65.4       62.1       59.2       56.2       50.1
      43.5       38.3       31.0
      49.9       50.2       61.8       66.8       73.3       78.5       82.2       85.5       88.2       92.3
      96.8      102.0      107.3      113.5      119.8      126.1      133.3      140.9      147.9      155.8
     163.7      170.7      178.4      184.9      191.0      196.3      201.3      205.5      209.1      211.8
     214.5      216.6      217.8      218.2      218.8      219.3      219.7      219.2      218.9      218.3
     216.6      215.3      213.2      210.1      205.7      201.7      197.0      191.9      186.1      179.1
     172.4      164.6      157.0      149.3      141.1      132.9      124.0      116.2      108.9      101.6
      94.6       88.8       82.6       77.1       71.1       66.7       63.6       59.8       57.2       52.3
      45.1       39.6       31.0
