IESNA:LM-63-1995
[TEST]     19150
[MANUFAC]COOPER LIGHTING - SHAPER                                
[LUMCAT]698-CF2/13                                                                      
[LUMINAIRE]INTERIOR WALL MOUNT LUMINAIRE WITH WHITE INTERIOR AND WHITE PLASTIC LENS                                      
[LAMP]TWO SYLVANIA 13 WATT CPFL LAMPS                                                 
[LAMPCAT]CF13DS/E/830. LUMEN RATING = 1600 LMS.                                          
[OTHER]ONE UNIVERSAL C213UNVSE BALLAST OPERATING AT 120 VAC AND 28 WATTS               
TILT=NONE
1
      1600
1
73
17
1
1
  0.21
  0.83
  0.83
1
1
   28.0000
0 2.5 5 7.5 10 12.5 15 17.5 20 22.5 25 27.5 30 32.5 35 37.5
40 42.5 45 47.5 50 52.5 55 57.5 60 62.5 65 67.5 70 72.5 75
77.5 80 82.5 85 87.5 90 92.5 95 97.5 100 102.5 105 107.5 110
112.5 115 117.5 120 122.5 125 127.5 130 132.5 135 137.5 140
142.5 145 147.5 150 152.5 155 157.5 160 162.5 165 167.5 170
172.5 175 177.5 180
0 22.5 45 67.5 90 112.5 135 157.5 180 202.5 225 247.5
270 292.5 315 337.5 360
      31.8       33.5       38.1       42.0       47.7       54.1       60.2       64.8       68.3       71.8
      74.6       77.0       78.8       80.3       82.1       83.6       84.9       85.6       85.7       86.1
      86.3       86.3       86.0       85.1       83.9       81.9       78.3       73.4       67.9       63.0
      59.4       57.3       55.6       54.2       53.7       53.1       53.2       56.8       57.3       57.2
      57.1       56.9       57.3       57.3       57.8       58.3       59.4       60.1       61.0       61.5
      62.1       62.5       62.7       62.6       62.2       62.1       61.2       59.6       57.7       56.1
      54.2       52.4       50.4       48.7       47.4       45.2       41.8       36.9       30.1       25.7
      21.8       16.5       12.9
      31.8       34.9       45.0       56.0       68.4       81.1       93.3      105.1      116.3      125.5
     132.6      138.4      141.1      141.5      141.2      140.6      138.9      136.0      132.9      129.0
     122.6      117.2      112.3      108.6      105.2      101.8       98.7       97.2       95.7       95.2
      94.4       93.7       93.5       93.5       93.5       93.5       93.4       90.9       90.2       90.2
      89.9       89.4       89.0       88.2       87.0       86.1       85.8       84.5       83.7       83.0
      82.2       82.0       82.1       81.9       83.2       85.3       86.9       89.2       90.5       91.9
      91.4       88.7       83.0       76.5       70.7       63.7       56.8       48.2       36.3       26.5
      21.4       16.2       12.9
      31.8       37.2       53.5       70.7       87.9      105.6      122.2      133.8      141.1      145.4
     146.7      144.9      141.1      133.0      125.2      121.0      118.7      117.8      116.4      115.8
     116.8      117.9      119.1      120.5      122.9      124.3      125.5      127.1      128.5      130.1
     131.2      131.8      133.0      133.9      134.5      134.9      134.9      129.7      129.6      128.9
     127.2      126.1      124.3      122.5      120.4      118.0      115.3      111.9      109.3      105.6
     102.6       99.1       95.6       92.5       89.0       85.5       82.6       79.9       78.0       78.1
      78.3       79.2       82.7       86.4       86.9       84.2       77.3       60.0       45.2       36.4
      26.8       14.7       12.9
      31.8       38.6       57.2       76.8       98.9      115.8      126.3      133.4      137.7      137.8
     133.3      125.1      121.0      119.7      118.9      118.2      119.7      122.2      124.9      128.1
     131.6      136.8      141.2      145.0      149.0      152.9      157.0      160.4      163.4      165.7
     168.0      170.8      172.8      174.2      175.0      175.8      176.1      171.5      170.6      169.0
     167.7      165.5      162.3      159.5      155.8      152.0      147.4      142.9      137.8      131.8
     126.7      120.4      114.4      109.0      103.4       98.0       92.3       87.3       82.2       77.5
      73.0       70.0       68.1       65.1       61.9       58.7       57.5       55.7       52.8       37.3
      26.3       13.9       12.9
      31.8       37.8       57.9       77.9       99.8      115.4      124.3      130.0      131.8      129.8
     122.9      116.6      114.3      114.0      113.4      115.4      117.9      120.6      124.7      128.6
     134.0      139.3      144.0      148.6      153.0      157.6      161.9      165.7      168.9      171.7
     173.3      174.7      175.3      176.3      177.9      179.4      179.4      178.0      176.4      175.1
     172.7      170.3      167.9      164.7      160.4      156.2      151.9      146.7      141.4      135.4
     129.5      122.6      116.2      109.4      103.2       96.9       90.1       84.7       78.8       73.5
      68.5       63.7       60.3       57.1       55.6       55.1       54.6       52.1       48.8       34.6
      23.4       12.8       12.9
      31.8       38.6       57.2       76.8       98.9      115.8      126.3      133.4      137.7      137.8
     133.3      125.1      121.0      119.7      118.9      118.2      119.7      122.2      124.9      128.1
     131.6      136.8      141.2      145.0      149.0      152.9      157.0      160.4      163.4      165.7
     168.0      170.8      172.8      174.2      175.0      175.8      176.1      171.5      170.6      169.0
     167.7      165.5      162.3      159.5      155.8      152.0      147.4      142.9      137.8      131.8
     126.7      120.4      114.4      109.0      103.4       98.0       92.3       87.3       82.2       77.5
      73.0       70.0       68.1       65.1       61.9       58.7       57.5       55.7       52.8       37.3
      26.3       13.9       12.9
      31.8       37.2       53.5       70.7       87.9      105.6      122.2      133.8      141.1      145.4
     146.7      144.9      141.1      133.0      125.2      121.0      118.7      117.8      116.4      115.8
     116.8      117.9      119.1      120.5      122.9      124.3      125.5      127.1      128.5      130.1
     131.2      131.8      133.0      133.9      134.5      134.9      134.9      129.7      129.6      128.9
     127.2      126.1      124.3      122.5      120.4      118.0      115.3      111.9      109.3      105.6
     102.6       99.1       95.6       92.5       89.0       85.5       82.6       79.9       78.0       78.1
      78.3       79.2       82.7       86.4       86.9       84.2       77.3       60.0       45.2       36.4
      26.8       14.7       12.9
      31.8       34.9       45.0       56.0       68.4       81.1       93.3      105.1      116.3      125.5
     132.6      138.4      141.1      141.5      141.2      140.6      138.9      136.0      132.9      129.0
     122.6      117.2      112.3      108.6      105.2      101.8       98.7       97.2       95.7       95.2
      94.4       93.7       93.5       93.5       93.5       93.5       93.4       90.9       90.2       90.2
      89.9       89.4       89.0       88.2       87.0       86.1       85.8       84.5       83.7       83.0
      82.2       82.0       82.1       81.9       83.2       85.3       86.9       89.2       90.5       91.9
      91.4       88.7       83.0       76.5       70.7       63.7       56.8       48.2       36.3       26.5
      21.4       16.2       12.9
      31.8       33.5       38.1       42.0       47.7       54.1       60.2       64.8       68.3       71.8
      74.6       77.0       78.8       80.3       82.1       83.6       84.9       85.6       85.7       86.1
      86.3       86.3       86.0       85.1       83.9       81.9       78.3       73.4       67.9       63.0
      59.4       57.3       55.6       54.2       53.7       53.1       53.2       56.8       57.3       57.2
      57.1       56.9       57.3       57.3       57.8       58.3       59.4       60.1       61.0       61.5
      62.1       62.5       62.7       62.6       62.2       62.1       61.2       59.6       57.7       56.1
      54.2       52.4       50.4       48.7       47.4       45.2       41.8       36.9       30.1       25.7
      21.8       16.5       12.9
      31.8       33.9       42.6       50.8       60.0       71.3       81.0       87.1       91.9       94.7
      96.1       97.5       98.5       99.1       99.1       99.8       99.8       99.2       98.7       98.1
      96.8       95.3       93.1       90.3       87.5       84.7       81.2       77.5       73.9       70.2
      67.3       64.6       63.0       61.3       60.1       59.1       58.3       59.1       59.4       59.8
      59.9       60.6       60.9       61.6       62.0       63.6       64.8       67.0       68.4       70.8
      72.7       74.4       75.8       76.5       77.4       77.5       76.3       74.9       73.0       70.6
      68.6       65.5       63.6       61.0       58.0       54.6       50.4       44.9       37.7       33.0
      24.0       16.0       12.9
      31.8       38.2       50.2       63.9       72.9       78.9       84.5       89.6       93.7       96.5
      98.0       97.5       97.1       95.8       93.3       89.8       86.9       84.2       81.4       78.5
      75.4       72.8       69.9       67.5       64.6       62.3       59.6       57.6       55.7       53.7
      52.1       50.4       49.2       47.8       46.3       45.7       44.9       45.3       45.1       45.5
      45.5       45.9       46.0       46.6       46.5       47.1       47.0       47.3       47.6       48.3
      49.3       50.0       51.1       52.1       54.0       55.6       57.1       59.6       61.6       63.6
      64.2       65.3       65.2       63.9       61.6       57.3       52.3       46.8       43.5       36.9
      27.3       17.4       12.9
      31.8       40.8       55.1       66.4       74.1       81.0       86.6       90.6       92.6       92.7
      91.5       89.7       86.7       83.1       80.1       76.3       72.9       69.7       66.2       63.0
      60.4       57.7       55.0       52.4       50.3       48.0       46.0       43.8       41.9       40.6
      38.9       37.9       36.2       35.0       34.0       32.9       32.1       30.2       29.9       30.1
      30.2       30.7       30.8       31.5       31.5       32.2       32.1       32.8       32.8       33.3
      34.0       34.4       35.4       36.4       37.4       39.1       40.6       42.8       45.0       48.0
      50.6       53.8       55.8       57.2       57.7       57.4       55.3       50.6       44.8       35.9
      29.2       19.7       12.9
      31.8       42.6       56.0       64.7       73.0       79.3       84.2       87.1       87.1       86.1
      83.6       80.1       75.8       72.5       68.6       64.2       60.3       56.8       53.4       50.1
      46.5       43.6       40.4       38.0       35.0       32.9       30.4       28.6       26.8       25.0
      23.7       22.1       21.1       19.6       18.8       17.5       16.8       15.2       16.7       17.5
      18.2       16.9       17.0       17.2       17.5       17.6       18.1       18.7       19.9       20.5
      21.6       22.2       23.4       24.4       25.9       27.4       29.2       31.5       33.4       35.9
      38.9       42.5       45.5       48.5       51.1       52.9       52.1       49.0       44.3       37.5
      29.8       19.9       12.9
      31.8       40.8       55.1       66.4       74.1       81.0       86.6       90.6       92.6       92.7
      91.5       89.7       86.7       83.1       80.1       76.3       72.9       69.7       66.2       63.0
      60.4       57.7       55.0       52.4       50.3       48.0       46.0       43.8       41.9       40.6
      38.9       37.9       36.2       35.0       34.0       32.9       32.1       30.2       29.9       30.1
      30.2       30.7       30.8       31.5       31.5       32.2       32.1       32.8       32.8       33.3
      34.0       34.4       35.4       36.4       37.4       39.1       40.6       42.8       45.0       48.0
      50.6       53.8       55.8       57.2       57.7       57.4       55.3       50.6       44.8       35.9
      29.2       19.7       12.9
      31.8       38.2       50.2       63.9       72.9       78.9       84.5       89.6       93.7       96.5
      98.0       97.5       97.1       95.8       93.3       89.8       86.9       84.2       81.4       78.5
      75.4       72.8       69.9       67.5       64.6       62.3       59.6       57.6       55.7       53.7
      52.1       50.4       49.2       47.8       46.3       45.7       44.9       45.3       45.1       45.5
      45.5       45.9       46.0       46.6       46.5       47.1       47.0       47.3       47.6       48.3
      49.3       50.0       51.1       52.1       54.0       55.6       57.1       59.6       61.6       63.6
      64.2       65.3       65.2       63.9       61.6       57.3       52.3       46.8       43.5       36.9
      27.3       17.4       12.9
      31.8       33.9       42.6       50.8       60.0       71.3       81.0       87.1       91.9       94.7
      96.1       97.5       98.5       99.1       99.1       99.8       99.8       99.2       98.7       98.1
      96.8       95.3       93.1       90.3       87.5       84.7       81.2       77.5       73.9       70.2
      67.3       64.6       63.0       61.3       60.1       59.1       58.3       59.1       59.4       59.8
      59.9       60.6       60.9       61.6       62.0       63.6       64.8       67.0       68.4       70.8
      72.7       74.4       75.8       76.5       77.4       77.5       76.3       74.9       73.0       70.6
      68.6       65.5       63.6       61.0       58.0       54.6       50.4       44.9       37.7       33.0
      24.0       16.0       12.9
      31.8       33.5       38.1       42.0       47.7       54.1       60.2       64.8       68.3       71.8
      74.6       77.0       78.8       80.3       82.1       83.6       84.9       85.6       85.7       86.1
      86.3       86.3       86.0       85.1       83.9       81.9       78.3       73.4       67.9       63.0
      59.4       57.3       55.6       54.2       53.7       53.1       53.2       56.8       57.3       57.2
      57.1       56.9       57.3       57.3       57.8       58.3       59.4       60.1       61.0       61.5
      62.1       62.5       62.7       62.6       62.2       62.1       61.2       59.6       57.7       56.1
      54.2       52.4       50.4       48.7       47.4       45.2       41.8       36.9       30.1       25.7
      21.8       16.5       12.9
