IESNA:LM-63-1995
[TEST]    19150A
[MANUFAC]COOPER LIGHTING - SHAPER                                
[LUMCAT]698-CF2/26                                                                      
[LUMINAIRE]INTERIOR WALL MOUNT LUMINAIRE WITH WHITE INTERIOR AND WHITE PLASTIC LENS                                      
[LAMP]TWO 26 WATT CPFL LAMPS. LUMEN RATING = 3600 LMS.                                
[OTHER]SIMULATED REORT FROM TEST WITH 2 - 13 WATT LAMPS                                
TILT=NONE
1
      3600
1
73
17
1
1
  0.21
  0.83
  0.83
1
1
    0.0000
0 2.5 5 7.5 10 12.5 15 17.5 20 22.5 25 27.5 30 32.5 35 37.5
40 42.5 45 47.5 50 52.5 55 57.5 60 62.5 65 67.5 70 72.5 75
77.5 80 82.5 85 87.5 90 92.5 95 97.5 100 102.5 105 107.5 110
112.5 115 117.5 120 122.5 125 127.5 130 132.5 135 137.5 140
142.5 145 147.5 150 152.5 155 157.5 160 162.5 165 167.5 170
172.5 175 177.5 180
0 22.5 45 67.5 90 112.5 135 157.5 180 202.5 225 247.5
270 292.5 315 337.5 360
      70.8       74.8       85.1       93.9      106.7      121.1      134.9      145.2      153.1      161.0
     167.3      172.7      176.6      180.0      184.1      187.5      190.4      192.0      192.1      193.2
     193.5      193.5      193.0      191.0      188.0      183.6      175.6      164.4      152.2      141.0
     132.9      128.3      124.5      121.4      120.2      118.7      119.0      127.1      128.2      128.1
     127.8      127.5      128.3      128.3      129.5      130.6      132.9      134.6      136.7      137.8
     139.1      139.9      140.4      140.2      139.3      139.1      137.2      133.4      129.1      125.5
     121.3      117.3      112.8      108.9      106.1      101.1       93.5       82.4       67.1       57.2
      48.4       36.6       28.4
      70.8       77.9      100.6      125.3      153.2      181.9      209.4      235.8      261.0      281.8
     297.7      310.8      316.7      317.8      317.2      315.8      311.8      305.4      298.5      289.7
     275.1      263.0      252.1      243.8      236.1      228.3      221.5      218.1      214.7      213.5
     211.9      210.1      209.8      209.7      209.7      209.8      209.5      203.9      202.2      202.4
     201.6      200.4      199.6      197.9      195.1      193.0      192.5      189.6      187.6      186.2
     184.4      183.9      184.1      183.7      186.5      191.4      194.9      200.0      203.1      206.3
     204.9      198.8      186.1      171.5      158.4      142.8      127.2      107.9       81.0       58.9
      47.6       35.7       28.4
      70.8       83.1      119.8      158.4      197.2      237.0      274.3      300.4      316.9      326.5
     329.5      325.5      316.9      298.6      281.1      271.6      266.6      264.5      261.2      260.0
     262.2      264.6      267.4      270.6      275.9      279.0      281.8      285.4      288.4      292.1
     294.5      295.9      298.6      300.6      301.9      302.8      302.9      291.2      291.1      289.4
     285.5      283.0      279.1      275.0      270.4      264.8      258.8      251.1      245.3      236.9
     230.3      222.3      214.5      207.6      199.6      191.8      185.1      179.2      174.9      175.2
     175.5      177.5      185.5      193.8      194.8      188.9      173.4      134.3      101.1       81.3
      59.6       32.4       28.4
      70.8       86.2      128.1      172.1      221.8      259.9      283.5      299.5      309.1      309.4
     299.3      280.8      271.7      268.6      267.0      265.2      268.6      274.4      280.4      287.6
     295.5      307.1      317.1      325.6      334.6      343.5      352.7      360.2      367.1      372.2
     377.3      383.7      388.2      391.3      393.2      394.9      395.6      385.2      383.1      379.7
     376.7      371.7      364.6      358.4      349.8      341.3      331.0      320.9      309.3      295.9
     284.4      270.3      256.8      244.5      232.1      219.8      207.1      195.9      184.2      173.7
     163.7      156.9      152.6      145.8      138.7      131.4      128.8      124.7      118.2       83.2
      58.6       30.7       28.4
      70.8       84.5      129.6      174.7      223.9      258.9      279.0      291.9      295.9      291.4
     275.9      261.8      256.6      256.0      254.6      259.1      264.6      270.7      279.9      288.7
     300.9      312.7      323.4      333.7      343.6      354.0      363.7      372.2      379.4      385.8
     389.3      392.5      393.9      396.1      399.7      403.0      403.0      400.0      396.4      393.4
     388.1      382.6      377.0      369.9      360.2      350.8      341.1      329.5      317.5      304.1
     290.8      275.1      260.9      245.6      231.5      217.4      202.1      189.9      176.7      164.6
     153.5      142.8      135.0      128.0      124.6      123.3      122.3      116.5      109.1       77.2
      52.0       28.1       28.4
      70.8       86.2      128.1      172.1      221.8      259.9      283.5      299.5      309.1      309.4
     299.3      280.8      271.7      268.6      267.0      265.2      268.6      274.4      280.4      287.6
     295.5      307.1      317.1      325.6      334.6      343.5      352.7      360.2      367.1      372.2
     377.3      383.7      388.2      391.3      393.2      394.9      395.6      385.2      383.1      379.7
     376.7      371.7      364.6      358.4      349.8      341.3      331.0      320.9      309.3      295.9
     284.4      270.3      256.8      244.5      232.1      219.8      207.1      195.9      184.2      173.7
     163.7      156.9      152.6      145.8      138.7      131.4      128.8      124.7      118.2       83.2
      58.6       30.7       28.4
      70.8       83.1      119.8      158.4      197.2      237.0      274.3      300.4      316.9      326.5
     329.5      325.5      316.9      298.6      281.1      271.6      266.6      264.5      261.2      260.0
     262.2      264.6      267.4      270.6      275.9      279.0      281.8      285.4      288.4      292.1
     294.5      295.9      298.6      300.6      301.9      302.8      302.9      291.2      291.1      289.4
     285.5      283.0      279.1      275.0      270.4      264.8      258.8      251.1      245.3      236.9
     230.3      222.3      214.5      207.6      199.6      191.8      185.1      179.2      174.9      175.2
     175.5      177.5      185.5      193.8      194.8      188.9      173.4      134.3      101.1       81.3
      59.6       32.4       28.4
      70.8       77.9      100.6      125.3      153.2      181.9      209.4      235.8      261.0      281.8
     297.7      310.8      316.7      317.8      317.2      315.8      311.8      305.4      298.5      289.7
     275.1      263.0      252.1      243.8      236.1      228.3      221.5      218.1      214.7      213.5
     211.9      210.1      209.8      209.7      209.7      209.8      209.5      203.9      202.2      202.4
     201.6      200.4      199.6      197.9      195.1      193.0      192.5      189.6      187.6      186.2
     184.4      183.9      184.1      183.7      186.5      191.4      194.9      200.0      203.1      206.3
     204.9      198.8      186.1      171.5      158.4      142.8      127.2      107.9       81.0       58.9
      47.6       35.7       28.4
      70.8       74.8       85.1       93.9      106.7      121.1      134.9      145.2      153.1      161.0
     167.3      172.7      176.6      180.0      184.1      187.5      190.4      192.0      192.1      193.2
     193.5      193.5      193.0      191.0      188.0      183.6      175.6      164.4      152.2      141.0
     132.9      128.3      124.5      121.4      120.2      118.7      119.0      127.1      128.2      128.1
     127.8      127.5      128.3      128.3      129.5      130.6      132.9      134.6      136.7      137.8
     139.1      139.9      140.4      140.2      139.3      139.1      137.2      133.4      129.1      125.5
     121.3      117.3      112.8      108.9      106.1      101.1       93.5       82.4       67.1       57.2
      48.4       36.6       28.4
      70.8       75.7       95.3      113.7      134.5      159.9      181.6      195.4      206.1      212.5
     215.6      218.9      220.9      222.4      222.3      223.9      223.9      222.6      221.5      220.2
     217.2      213.8      208.9      202.5      196.3      189.9      182.0      173.7      165.6      157.2
     150.7      144.8      141.0      137.3      134.7      132.4      130.6      132.4      133.1      133.9
     134.2      135.8      136.4      138.1      138.8      142.4      145.2      150.1      153.3      158.7
     163.0      166.7      169.8      171.5      173.5      173.7      171.2      167.9      163.7      158.3
     153.6      146.8      142.4      136.6      129.9      122.2      112.8      100.3       84.3       73.6
      53.4       35.3       28.4
      70.8       85.3      112.4      143.2      163.3      177.0      189.6      201.0      210.1      216.6
     219.9      218.7      217.9      214.8      209.4      201.5      194.9      188.9      182.5      176.1
     169.0      163.2      156.6      151.3      144.8      139.5      133.4      129.0      124.7      120.2
     116.5      112.7      110.0      107.0      103.6      102.1      100.3      101.4      100.9      101.8
     101.7      102.7      102.8      104.2      104.0      105.4      105.1      105.7      106.5      108.1
     110.3      111.9      114.5      116.6      120.8      124.6      128.0      133.4      138.1      142.5
     143.8      146.2      146.1      143.1      138.1      128.4      116.9      104.8       97.4       82.3
      60.8       38.5       28.4
      70.8       91.2      123.3      148.8      166.1      181.6      194.2      203.3      207.7      208.0
     205.2      201.2      194.5      186.3      179.5      171.2      163.3      156.2      148.3      141.2
     135.4      129.2      123.2      117.3      112.5      107.3      102.8       98.0       93.6       90.7
      86.8       84.6       80.7       78.2       75.8       73.4       71.5       67.4       66.8       67.2
      67.4       68.5       68.7       70.2       70.3       71.8       71.7       73.1       73.1       74.4
      75.8       76.9       79.1       81.2       83.4       87.4       90.7       95.7      100.6      107.3
     113.1      120.4      124.9      128.1      129.3      128.6      123.8      113.2      100.2       80.3
      65.0       43.8       28.4
      70.8       95.3      125.3      144.9      163.7      177.8      188.9      195.2      195.2      193.2
     187.5      179.5      170.0      162.6      153.8      143.7      135.0      127.2      119.6      112.2
     104.0       97.5       90.4       84.8       78.2       73.3       67.7       63.7       59.8       55.6
      52.6       49.1       46.7       43.6       41.7       38.7       37.2       33.5       37.0       38.8
      40.3       37.4       37.7       38.1       38.7       39.0       40.2       41.5       44.1       45.5
      47.9       49.4       52.0       54.3       57.6       61.0       65.1       70.3       74.5       80.3
      86.8       95.0      101.7      108.5      114.3      118.5      116.6      109.7       99.0       83.9
      66.5       44.2       28.4
      70.8       91.2      123.3      148.8      166.1      181.6      194.2      203.3      207.7      208.0
     205.2      201.2      194.5      186.3      179.5      171.2      163.3      156.2      148.3      141.2
     135.4      129.2      123.2      117.3      112.5      107.3      102.8       98.0       93.6       90.7
      86.8       84.6       80.7       78.2       75.8       73.4       71.5       67.4       66.8       67.2
      67.4       68.5       68.7       70.2       70.3       71.8       71.7       73.1       73.1       74.4
      75.8       76.9       79.1       81.2       83.4       87.4       90.7       95.7      100.6      107.3
     113.1      120.4      124.9      128.1      129.3      128.6      123.8      113.2      100.2       80.3
      65.0       43.8       28.4
      70.8       85.3      112.4      143.2      163.3      177.0      189.6      201.0      210.1      216.6
     219.9      218.7      217.9      214.8      209.4      201.5      194.9      188.9      182.5      176.1
     169.0      163.2      156.6      151.3      144.8      139.5      133.4      129.0      124.7      120.2
     116.5      112.7      110.0      107.0      103.6      102.1      100.3      101.4      100.9      101.8
     101.7      102.7      102.8      104.2      104.0      105.4      105.1      105.7      106.5      108.1
     110.3      111.9      114.5      116.6      120.8      124.6      128.0      133.4      138.1      142.5
     143.8      146.2      146.1      143.1      138.1      128.4      116.9      104.8       97.4       82.3
      60.8       38.5       28.4
      70.8       75.7       95.3      113.7      134.5      159.9      181.6      195.4      206.1      212.5
     215.6      218.9      220.9      222.4      222.3      223.9      223.9      222.6      221.5      220.2
     217.2      213.8      208.9      202.5      196.3      189.9      182.0      173.7      165.6      157.2
     150.7      144.8      141.0      137.3      134.7      132.4      130.6      132.4      133.1      133.9
     134.2      135.8      136.4      138.1      138.8      142.4      145.2      150.1      153.3      158.7
     163.0      166.7      169.8      171.5      173.5      173.7      171.2      167.9      163.7      158.3
     153.6      146.8      142.4      136.6      129.9      122.2      112.8      100.3       84.3       73.6
      53.4       35.3       28.4
      70.8       74.8       85.1       93.9      106.7      121.1      134.9      145.2      153.1      161.0
     167.3      172.7      176.6      180.0      184.1      187.5      190.4      192.0      192.1      193.2
     193.5      193.5      193.0      191.0      188.0      183.6      175.6      164.4      152.2      141.0
     132.9      128.3      124.5      121.4      120.2      118.7      119.0      127.1      128.2      128.1
     127.8      127.5      128.3      128.3      129.5      130.6      132.9      134.6      136.7      137.8
     139.1      139.9      140.4      140.2      139.3      139.1      137.2      133.4      129.1      125.5
     121.3      117.3      112.8      108.9      106.1      101.1       93.5       82.4       67.1       57.2
      48.4       36.6       28.4
