IESNA:LM-63-2002
[TEST]253p134
[TESTLAB]METALUX LABORITORIES
[ISSUEDATE]07/30/07
[MANUFAC]COOPER LIGHTING - SHAPER
[LUMCAT]1200-OB-36-CFL/6/55 
[LUMINAIRE]SHAPER 36 INCH 1200 SERIES DIRECT/INDIRECT INDOOR PENDANT FIXTURE
[LAMP]SIX - F55BX - 55 WATTS
[MORE]SIX GX24 T4 COMPACT FLUORESCENT LAMPS 
TILT=NONE
6 4800 1 73 37 1 1 -3 -3 0
1 1 339
0 2.5 5 7.5 10 12.5 15 17.5 20 22.5 25 27.5 30 32.5 35 37.5 40 42.5 45 47.5 50 
52.5 55 57.5 60 62.5 65 67.5 70 72.5 75 77.5 80 82.5 85 87.5 90 92.5 95 97.5 100 
102.5 105 107.5 110 112.5 115 117.5 120 122.5 125 127.5 130 132.5 135 137.5 140 
142.5 145 147.5 150 152.5 155 157.5 160 162.5 165 167.5 170 172.5 175 177.5 180 
0 10 20 30 40 50 60 70 80 90 100 110 120 130 140 150 160 170 180 190 200 210 220 
230 240 250 260 270 280 290 300 310 320 330 340 350 360
0 0 0 0 0 0 0 0 0 0 0 0 0 0 0 0 0 0 0 0 0 0 0 0 0 0 0 0 0 0 0 0 0 0 0 0 8 196
554 1001 1456 1969 2509 2945 3368 3687 4030 4407 4758 5059 5341 5534 5669 5787
5842 5896 5926 5930 5908 5877 5861 5803 5641 5387 5103 4801 4506 4201 3905 3649
3476 3350 3297
0 0 0 0 0 0 0 0 0 0 0 0 0 0 0 0 0 0 0 0 0 0 0 0 0 0 0 0 0 0 0 0 0 0 0 0 10 192
524 936 1350 1788 2252 2661 3061 3396 3736 4123 4462 4764 5045 5254 5408 5556
5683 5792 5856 5902 5911 5885 5855 5773 5600 5343 5074 4785 4498 4200 3909 3661
3485 3354 3297
0 0 0 0 0 0 0 0 0 0 0 0 0 0 0 0 0 0 0 0 0 0 0 0 0 0 0 0 0 0 0 0 0 0 0 0 13 189
492 870 1242 1607 1992 2377 2752 3105 3439 3838 4165 4467 4747 4972 5147 5325
5523 5686 5785 5873 5912 5892 5850 5740 5556 5298 5043 4766 4489 4197 3913 3673
3492 3359 3297
0 0 0 0 0 0 0 0 0 0 0 0 0 0 0 0 0 0 0 0 0 0 0 0 0 0 0 0 0 0 0 0 0 0 0 0 13 176
457 791 1116 1425 1764 2066 2398 2787 3162 3467 3843 4147 4379 4551 4762 5013
5231 5404 5548 5622 5713 5792 5744 5585 5373 5124 4883 4648 4393 4124 3865 3654
3481 3353 3297
0 0 0 0 0 0 0 0 0 0 0 0 0 0 0 0 0 0 0 0 0 0 0 0 0 0 0 0 0 0 0 0 0 0 0 0 12 205
532 894 1262 1624 1960 2295 2636 3043 3422 3739 4035 4326 4531 4751 4981 5214
5411 5552 5675 5796 5843 5864 5796 5588 5345 5089 4848 4606 4362 4099 3856 3661
3485 3350 3297
0 0 0 0 0 0 0 0 0 0 0 0 0 0 0 0 0 0 0 0 0 0 0 0 0 0 0 0 0 0 0 0 0 0 0 0 11 241
594 958 1340 1689 2021 2421 2798 3188 3578 3927 4194 4550 4875 5152 5400 5619
5808 5969 6074 6125 6071 5968 5841 5629 5371 5109 4841 4579 4326 4079 3858 3663
3485 3350 3297
0 0 0 0 0 0 0 0 0 0 0 0 0 0 0 0 0 0 0 0 0 0 0 0 0 0 0 0 0 0 0 0 0 0 0 0 10 279
647 1032 1408 1742 2130 2549 2923 3262 3630 4085 4443 4855 5193 5478 5762 6008
6187 6272 6262 6206 6102 5955 5836 5645 5374 5093 4810 4535 4294 4079 3862 3665
3484 3349 3297
0 0 0 0 0 0 0 0 0 0 0 0 0 0 0 0 0 0 0 0 0 0 0 0 0 0 0 0 0 0 0 0 0 0 0 0 9 234
586 953 1332 1685 2062 2449 2810 3181 3564 3962 4279 4626 4885 5127 5376 5606
5785 5896 5952 5989 5960 5889 5802 5603 5349 5083 4823 4563 4323 4086 3857 3661
3483 3350 3297
0 0 0 0 0 0 0 0 0 0 0 0 0 0 0 0 0 0 0 0 0 0 0 0 0 0 0 0 0 0 0 0 0 0 0 0 5 187
523 874 1255 1627 1992 2348 2695 3098 3498 3839 4113 4394 4577 4773 4988 5203
5382 5518 5640 5770 5817 5822 5765 5560 5322 5071 4835 4589 4350 4092 3850 3656
3481 3350 3297
0 0 0 0 0 0 0 0 0 0 0 0 0 0 0 0 0 0 0 0 0 0 0 0 0 0 0 0 0 0 0 0 0 0 0 0 5 138
414 740 1084 1419 1768 2075 2396 2801 3201 3500 3874 4158 4351 4496 4695 4944
5161 5335 5487 5578 5669 5763 5709 5553 5336 5094 4854 4623 4371 4107 3850 3645
3475 3347 3297
0 0 0 0 0 0 0 0 0 0 0 0 0 0 0 0 0 0 0 0 0 0 0 0 0 0 0 0 0 0 0 0 0 0 0 0 8 157
510 942 1351 1765 2175 2534 2891 3250 3550 3934 4225 4475 4707 4891 5033 5191
5383 5549 5657 5757 5815 5805 5761 5644 5459 5210 4957 4695 4427 4147 3876 3648
3477 3352 3297
0 0 0 0 0 0 0 0 0 0 0 0 0 0 0 0 0 0 0 0 0 0 0 0 0 0 0 0 0 0 0 0 0 0 0 0 9 178
533 972 1404 1868 2342 2740 3131 3469 3791 4171 4492 4768 5025 5213 5352 5490
5614 5723 5792 5844 5862 5842 5812 5724 5551 5299 5030 4749 4467 4175 3892 3650
3477 3351 3297
0 0 0 0 0 0 0 0 0 0 0 0 0 0 0 0 0 0 0 0 0 0 0 0 0 0 0 0 0 0 0 0 0 0 0 0 8 196
554 1001 1456 1969 2509 2945 3368 3687 4030 4407 4758 5059 5341 5534 5669 5787
5842 5896 5926 5930 5908 5877 5861 5803 5641 5387 5103 4801 4506 4201 3905 3649
3476 3350 3297
0 0 0 0 0 0 0 0 0 0 0 0 0 0 0 0 0 0 0 0 0 0 0 0 0 0 0 0 0 0 0 0 0 0 0 0 10 192
524 936 1350 1788 2252 2661 3061 3396 3736 4123 4462 4764 5045 5254 5408 5556
5683 5792 5856 5902 5911 5885 5855 5773 5600 5343 5074 4785 4498 4200 3909 3661
3485 3354 3297
0 0 0 0 0 0 0 0 0 0 0 0 0 0 0 0 0 0 0 0 0 0 0 0 0 0 0 0 0 0 0 0 0 0 0 0 13 189
492 870 1242 1607 1992 2377 2752 3105 3439 3838 4165 4467 4747 4972 5147 5325
5523 5686 5785 5873 5912 5892 5850 5740 5556 5298 5043 4766 4489 4197 3913 3673
3492 3359 3297
0 0 0 0 0 0 0 0 0 0 0 0 0 0 0 0 0 0 0 0 0 0 0 0 0 0 0 0 0 0 0 0 0 0 0 0 13 176
457 791 1116 1425 1764 2066 2398 2787 3162 3467 3843 4147 4379 4551 4762 5013
5231 5404 5548 5622 5713 5792 5744 5585 5373 5124 4883 4648 4393 4124 3865 3654
3481 3353 3297
0 0 0 0 0 0 0 0 0 0 0 0 0 0 0 0 0 0 0 0 0 0 0 0 0 0 0 0 0 0 0 0 0 0 0 0 12 205
532 894 1262 1624 1960 2295 2636 3043 3422 3739 4035 4326 4531 4751 4981 5214
5411 5552 5675 5796 5843 5864 5796 5588 5345 5089 4848 4606 4362 4099 3856 3661
3485 3350 3297
0 0 0 0 0 0 0 0 0 0 0 0 0 0 0 0 0 0 0 0 0 0 0 0 0 0 0 0 0 0 0 0 0 0 0 0 11 241
594 958 1340 1689 2021 2421 2798 3188 3578 3927 4194 4550 4875 5152 5400 5619
5808 5969 6074 6125 6071 5968 5841 5629 5371 5109 4841 4579 4326 4079 3858 3663
3485 3350 3297
0 0 0 0 0 0 0 0 0 0 0 0 0 0 0 0 0 0 0 0 0 0 0 0 0 0 0 0 0 0 0 0 0 0 0 0 10 279
647 1032 1408 1742 2130 2549 2923 3262 3630 4085 4443 4855 5193 5478 5762 6008
6187 6272 6262 6206 6102 5955 5836 5645 5374 5093 4810 4535 4294 4079 3862 3665
3484 3349 3297
0 0 0 0 0 0 0 0 0 0 0 0 0 0 0 0 0 0 0 0 0 0 0 0 0 0 0 0 0 0 0 0 0 0 0 0 9 234
586 953 1332 1685 2062 2449 2810 3181 3564 3962 4279 4626 4885 5127 5376 5606
5785 5896 5952 5989 5960 5889 5802 5603 5349 5083 4823 4563 4323 4086 3857 3661
3483 3350 3297
0 0 0 0 0 0 0 0 0 0 0 0 0 0 0 0 0 0 0 0 0 0 0 0 0 0 0 0 0 0 0 0 0 0 0 0 5 187
523 874 1255 1627 1992 2348 2695 3098 3498 3839 4113 4394 4577 4773 4988 5203
5382 5518 5640 5770 5817 5822 5765 5560 5322 5071 4835 4589 4350 4092 3850 3656
3481 3350 3297
0 0 0 0 0 0 0 0 0 0 0 0 0 0 0 0 0 0 0 0 0 0 0 0 0 0 0 0 0 0 0 0 0 0 0 0 5 138
414 740 1084 1419 1768 2075 2396 2801 3201 3500 3874 4158 4351 4496 4695 4944
5161 5335 5487 5578 5669 5763 5709 5553 5336 5094 4854 4623 4371 4107 3850 3645
3475 3347 3297
0 0 0 0 0 0 0 0 0 0 0 0 0 0 0 0 0 0 0 0 0 0 0 0 0 0 0 0 0 0 0 0 0 0 0 0 8 157
510 942 1351 1765 2175 2534 2891 3250 3550 3934 4225 4475 4707 4891 5033 5191
5383 5549 5657 5757 5815 5805 5761 5644 5459 5210 4957 4695 4427 4147 3876 3648
3477 3352 3297
0 0 0 0 0 0 0 0 0 0 0 0 0 0 0 0 0 0 0 0 0 0 0 0 0 0 0 0 0 0 0 0 0 0 0 0 9 178
533 972 1404 1868 2342 2740 3131 3469 3791 4171 4492 4768 5025 5213 5352 5490
5614 5723 5792 5844 5862 5842 5812 5724 5551 5299 5030 4749 4467 4175 3892 3650
3477 3351 3297
0 0 0 0 0 0 0 0 0 0 0 0 0 0 0 0 0 0 0 0 0 0 0 0 0 0 0 0 0 0 0 0 0 0 0 0 8 196
554 1001 1456 1969 2509 2945 3368 3687 4030 4407 4758 5059 5341 5534 5669 5787
5842 5896 5926 5930 5908 5877 5861 5803 5641 5387 5103 4801 4506 4201 3905 3649
3476 3350 3297
0 0 0 0 0 0 0 0 0 0 0 0 0 0 0 0 0 0 0 0 0 0 0 0 0 0 0 0 0 0 0 0 0 0 0 0 10 192
524 936 1350 1788 2252 2661 3061 3396 3736 4123 4462 4764 5045 5254 5408 5556
5683 5792 5856 5902 5911 5885 5855 5773 5600 5343 5074 4785 4498 4200 3909 3661
3485 3354 3297
0 0 0 0 0 0 0 0 0 0 0 0 0 0 0 0 0 0 0 0 0 0 0 0 0 0 0 0 0 0 0 0 0 0 0 0 13 189
492 870 1242 1607 1992 2377 2752 3105 3439 3838 4165 4467 4747 4972 5147 5325
5523 5686 5785 5873 5912 5892 5850 5740 5556 5298 5043 4766 4489 4197 3913 3673
3492 3359 3297
0 0 0 0 0 0 0 0 0 0 0 0 0 0 0 0 0 0 0 0 0 0 0 0 0 0 0 0 0 0 0 0 0 0 0 0 13 176
457 791 1116 1425 1764 2066 2398 2787 3162 3467 3843 4147 4379 4551 4762 5013
5231 5404 5548 5622 5713 5792 5744 5585 5373 5124 4883 4648 4393 4124 3865 3654
3481 3353 3297
0 0 0 0 0 0 0 0 0 0 0 0 0 0 0 0 0 0 0 0 0 0 0 0 0 0 0 0 0 0 0 0 0 0 0 0 12 205
532 894 1262 1624 1960 2295 2636 3043 3422 3739 4035 4326 4531 4751 4981 5214
5411 5552 5675 5796 5843 5864 5796 5588 5345 5089 4848 4606 4362 4099 3856 3661
3485 3350 3297
0 0 0 0 0 0 0 0 0 0 0 0 0 0 0 0 0 0 0 0 0 0 0 0 0 0 0 0 0 0 0 0 0 0 0 0 11 241
594 958 1340 1689 2021 2421 2798 3188 3578 3927 4194 4550 4875 5152 5400 5619
5808 5969 6074 6125 6071 5968 5841 5629 5371 5109 4841 4579 4326 4079 3858 3663
3485 3350 3297
0 0 0 0 0 0 0 0 0 0 0 0 0 0 0 0 0 0 0 0 0 0 0 0 0 0 0 0 0 0 0 0 0 0 0 0 10 279
647 1032 1408 1742 2130 2549 2923 3262 3630 4085 4443 4855 5193 5478 5762 6008
6187 6272 6262 6206 6102 5955 5836 5645 5374 5093 4810 4535 4294 4079 3862 3665
3484 3349 3297
0 0 0 0 0 0 0 0 0 0 0 0 0 0 0 0 0 0 0 0 0 0 0 0 0 0 0 0 0 0 0 0 0 0 0 0 9 234
586 953 1332 1685 2062 2449 2810 3181 3564 3962 4279 4626 4885 5127 5376 5606
5785 5896 5952 5989 5960 5889 5802 5603 5349 5083 4823 4563 4323 4086 3857 3661
3483 3350 3297
0 0 0 0 0 0 0 0 0 0 0 0 0 0 0 0 0 0 0 0 0 0 0 0 0 0 0 0 0 0 0 0 0 0 0 0 5 187
523 874 1255 1627 1992 2348 2695 3098 3498 3839 4113 4394 4577 4773 4988 5203
5382 5518 5640 5770 5817 5822 5765 5560 5322 5071 4835 4589 4350 4092 3850 3656
3481 3350 3297
0 0 0 0 0 0 0 0 0 0 0 0 0 0 0 0 0 0 0 0 0 0 0 0 0 0 0 0 0 0 0 0 0 0 0 0 5 138
414 740 1084 1419 1768 2075 2396 2801 3201 3500 3874 4158 4351 4496 4695 4944
5161 5335 5487 5578 5669 5763 5709 5553 5336 5094 4854 4623 4371 4107 3850 3645
3475 3347 3297
0 0 0 0 0 0 0 0 0 0 0 0 0 0 0 0 0 0 0 0 0 0 0 0 0 0 0 0 0 0 0 0 0 0 0 0 8 157
510 942 1351 1765 2175 2534 2891 3250 3550 3934 4225 4475 4707 4891 5033 5191
5383 5549 5657 5757 5815 5805 5761 5644 5459 5210 4957 4695 4427 4147 3876 3648
3477 3352 3297
0 0 0 0 0 0 0 0 0 0 0 0 0 0 0 0 0 0 0 0 0 0 0 0 0 0 0 0 0 0 0 0 0 0 0 0 9 178
533 972 1404 1868 2342 2740 3131 3469 3791 4171 4492 4768 5025 5213 5352 5490
5614 5723 5792 5844 5862 5842 5812 5724 5551 5299 5030 4749 4467 4175 3892 3650
3477 3351 3297
0 0 0 0 0 0 0 0 0 0 0 0 0 0 0 0 0 0 0 0 0 0 0 0 0 0 0 0 0 0 0 0 0 0 0 0 8 196
554 1001 1456 1969 2509 2945 3368 3687 4030 4407 4758 5059 5341 5534 5669 5787
5842 5896 5926 5930 5908 5877 5861 5803 5641 5387 5103 4801 4506 4201 3905 3649
3476 3350 3297

