IESNA:LM-63-2002
[TEST]253P137
[TESTLAB]METALUX LABORATORIES
[ISSUEDATE]11/16/07
[MANUFAC]COOPER LIGHTING - SHAPER
[LUMCAT]1200-OB-26-CFL/6/27
[LUMINAIRE]SHAPER 26 INCH 1200 SERIES DIRECT/INDIRECT INDOOR PENDANT FIXTURE
[LAMP]SIX - FT24DL - 1800 LUMENS - 24 WATTS
[MORE]SIX GX24 T4 COMPACT FLUORESCENT LAMPS
[BALLAST]SWB-26-2-120
TILT=NONE
6 1800 1 73 25 1 1 -2.166667 -2.166667 0.000000
1.000 1 59
0 2.5 5 7.5 10 12.5 15 17.5 20 22.5 25 27.5 30 32.5 35 37.5 40 42.5 45 47.5 50 
52.5 55 57.5 60 62.5 65 67.5 70 72.5 75 77.5 80 82.5 85 87.5 90 92.5 95 97.5 100 
102.5 105 107.5 110 112.5 115 117.5 120 122.5 125 127.5 130 132.5 135 137.5 140 
142.5 145 147.5 150 152.5 155 157.5 160 162.5 165 167.5 170 172.5 175 177.5 180 
0 20 30 40 60 80 90 100 120 140 150 160 180 200 210 220 240 260 270 280 300 320 
330 340 360 
9 10 9 9 8 9 10 11 14 11 10 17 17 13 27 30 26 26 30 33 38 47 55 65 78 89 100 111 
120 127 131 132 110 48 4 1 7 60 189 355 544 743 954 1097 1195 1275 1370 1470 
1562 1645 1729 1805 1886 1959 2024 2078 2128 2172 2208 2244 2268 2282 2295 2302 
2300 2271 2220 2138 2009 1875 1754 1647 1581 
9 9 8 9 9 9 9 9 11 8 22 31 35 39 43 47 54 60 66 72 79 89 98 106 115 122 126 128 
132 134 137 141 139 101 32 1 5 61 201 353 508 643 819 1001 1178 1294 1367 1405 
1461 1547 1639 1732 1825 1908 1975 2030 2077 2115 2141 2161 2170 2176 2181 2178 
2172 2152 2124 2072 1968 1852 1742 1639 1581 
9 9 9 9 9 9 9 11 13 25 33 37 44 51 56 63 70 76 85 89 97 110 118 127 138 149 157 
167 175 187 193 199 198 139 39 1 5 68 200 351 469 574 699 865 1040 1215 1313 
1370 1396 1447 1533 1621 1697 1765 1836 1894 1944 1985 2021 2046 2069 2086 2095 
2105 2106 2097 2071 2020 1934 1838 1734 1637 1581 
9 9 9 10 9 9 10 11 14 30 37 44 50 59 64 73 80 88 98 106 114 125 134 144 157 166 
175 186 197 210 221 231 224 128 21 2 12 112 265 414 535 642 756 897 1068 1240 
1403 1499 1555 1612 1686 1777 1840 1898 1956 1999 2038 2067 2088 2112 2126 2132 
2135 2131 2120 2098 2049 1984 1914 1824 1724 1632 1581 
9 8 9 10 9 9 9 10 15 32 41 48 58 64 72 80 88 95 104 114 123 135 146 155 170 180 
190 201 213 223 234 246 222 101 5 2 18 156 335 461 549 644 755 879 1028 1198 
1371 1518 1609 1668 1741 1830 1917 1984 2051 2109 2159 2204 2239 2269 2287 2292 
2283 2241 2179 2115 2049 1982 1916 1824 1720 1629 1581 
9 9 9 8 9 9 10 11 15 28 35 42 51 58 63 70 77 86 93 101 110 120 128 138 149 159 
167 177 186 196 207 213 203 103 8 8 4 76 227 393 518 630 751 890 1049 1212 1378 
1480 1538 1590 1661 1735 1805 1867 1926 1977 2018 2051 2074 2096 2110 2122 2126 
2125 2116 2096 2050 1989 1918 1830 1730 1636 1581 
9 10 8 8 9 9 10 16 10 24 29 34 41 44 51 58 65 73 78 86 91 101 109 119 128 136 
144 152 160 169 173 179 174 111 16 6 3 54 187 336 461 575 707 874 1051 1227 1346 
1398 1426 1476 1552 1645 1721 1789 1850 1905 1951 1992 2028 2053 2078 2093 2103 
2109 2113 2104 2075 2021 1936 1838 1733 1637 1581 
9 10 8 8 7 9 10 9 13 8 22 25 32 35 38 43 48 56 62 66 73 79 90 96 106 113 116 121 
123 127 128 128 122 82 15 2 3 55 185 334 495 644 826 1031 1238 1384 1437 1459 
1502 1582 1671 1757 1844 1917 1981 2035 2084 2124 2155 2183 2194 2201 2201 2195 
2188 2170 2138 2080 1973 1857 1742 1641 1581 
9 10 9 9 8 9 10 11 14 11 10 17 17 13 27 30 26 26 30 33 38 47 55 65 78 89 100 111 
120 127 131 132 110 48 4 1 7 60 189 355 544 743 954 1097 1195 1275 1370 1470 
1562 1645 1729 1805 1886 1959 2024 2078 2128 2172 2208 2244 2268 2282 2295 2302 
2300 2271 2220 2138 2009 1875 1754 1647 1581 
9 9 8 9 9 9 9 9 11 8 22 31 35 39 43 47 54 60 66 72 79 89 98 106 115 122 126 128 
132 134 137 141 139 101 32 1 5 61 201 353 508 643 819 1001 1178 1294 1367 1405 
1461 1547 1639 1732 1825 1908 1975 2030 2077 2115 2141 2161 2170 2176 2181 2178 
2172 2152 2124 2072 1968 1852 1742 1639 1581 
9 9 9 9 9 9 9 11 13 25 33 37 44 51 56 63 70 76 85 89 97 110 118 127 138 149 157 
167 175 187 193 199 198 139 39 1 5 68 200 351 469 574 699 865 1040 1215 1313 
1370 1396 1447 1533 1621 1697 1765 1836 1894 1944 1985 2021 2046 2069 2086 2095 
2105 2106 2097 2071 2020 1934 1838 1734 1637 1581 
9 9 9 10 9 9 10 11 14 30 37 44 50 59 64 73 80 88 98 106 114 125 134 144 157 166 
175 186 197 210 221 231 224 128 21 2 12 112 265 414 535 642 756 897 1068 1240 
1403 1499 1555 1612 1686 1777 1840 1898 1956 1999 2038 2067 2088 2112 2126 2132 
2135 2131 2120 2098 2049 1984 1914 1824 1724 1632 1581 
9 8 9 10 9 9 9 10 15 32 41 48 58 64 72 80 88 95 104 114 123 135 146 155 170 180 
190 201 213 223 234 246 222 101 5 2 18 156 335 461 549 644 755 879 1028 1198 
1371 1518 1609 1668 1741 1830 1917 1984 2051 2109 2159 2204 2239 2269 2287 2292 
2283 2241 2179 2115 2049 1982 1916 1824 1720 1629 1581 
9 9 9 8 9 9 10 11 15 28 35 42 51 58 63 70 77 86 93 101 110 120 128 138 149 159 
167 177 186 196 207 213 203 103 8 8 4 76 227 393 518 630 751 890 1049 1212 1378 
1480 1538 1590 1661 1735 1805 1867 1926 1977 2018 2051 2074 2096 2110 2122 2126 
2125 2116 2096 2050 1989 1918 1830 1730 1636 1581 
9 10 8 8 9 9 10 16 10 24 29 34 41 44 51 58 65 73 78 86 91 101 109 119 128 136 
144 152 160 169 173 179 174 111 16 6 3 54 187 336 461 575 707 874 1051 1227 1346 
1398 1426 1476 1552 1645 1721 1789 1850 1905 1951 1992 2028 2053 2078 2093 2103 
2109 2113 2104 2075 2021 1936 1838 1733 1637 1581 
9 10 8 8 7 9 10 9 13 8 22 25 32 35 38 43 48 56 62 66 73 79 90 96 106 113 116 121 
123 127 128 128 122 82 15 2 3 55 185 334 495 644 826 1031 1238 1384 1437 1459 
1502 1582 1671 1757 1844 1917 1981 2035 2084 2124 2155 2183 2194 2201 2201 2195 
2188 2170 2138 2080 1973 1857 1742 1641 1581 
9 10 9 9 8 9 10 11 14 11 10 17 17 13 27 30 26 26 30 33 38 47 55 65 78 89 100 111 
120 127 131 132 110 48 4 1 7 60 189 355 544 743 954 1097 1195 1275 1370 1470 
1562 1645 1729 1805 1886 1959 2024 2078 2128 2172 2208 2244 2268 2282 2295 2302 
2300 2271 2220 2138 2009 1875 1754 1647 1581 
9 9 8 9 9 9 9 9 11 8 22 31 35 39 43 47 54 60 66 72 79 89 98 106 115 122 126 128 
132 134 137 141 139 101 32 1 5 61 201 353 508 643 819 1001 1178 1294 1367 1405 
1461 1547 1639 1732 1825 1908 1975 2030 2077 2115 2141 2161 2170 2176 2181 2178 
2172 2152 2124 2072 1968 1852 1742 1639 1581 
9 9 9 9 9 9 9 11 13 25 33 37 44 51 56 63 70 76 85 89 97 110 118 127 138 149 157 
167 175 187 193 199 198 139 39 1 5 68 200 351 469 574 699 865 1040 1215 1313 
1370 1396 1447 1533 1621 1697 1765 1836 1894 1944 1985 2021 2046 2069 2086 2095 
2105 2106 2097 2071 2020 1934 1838 1734 1637 1581 
9 9 9 10 9 9 10 11 14 30 37 44 50 59 64 73 80 88 98 106 114 125 134 144 157 166 
175 186 197 210 221 231 224 128 21 2 12 112 265 414 535 642 756 897 1068 1240 
1403 1499 1555 1612 1686 1777 1840 1898 1956 1999 2038 2067 2088 2112 2126 2132 
2135 2131 2120 2098 2049 1984 1914 1824 1724 1632 1581 
9 8 9 10 9 9 9 10 15 32 41 48 58 64 72 80 88 95 104 114 123 135 146 155 170 180 
190 201 213 223 234 246 222 101 5 2 18 156 335 461 549 644 755 879 1028 1198 
1371 1518 1609 1668 1741 1830 1917 1984 2051 2109 2159 2204 2239 2269 2287 2292 
2283 2241 2179 2115 2049 1982 1916 1824 1720 1629 1581 
9 9 9 8 9 9 10 11 15 28 35 42 51 58 63 70 77 86 93 101 110 120 128 138 149 159 
167 177 186 196 207 213 203 103 8 8 4 76 227 393 518 630 751 890 1049 1212 1378 
1480 1538 1590 1661 1735 1805 1867 1926 1977 2018 2051 2074 2096 2110 2122 2126 
2125 2116 2096 2050 1989 1918 1830 1730 1636 1581 
9 10 8 8 9 9 10 16 10 24 29 34 41 44 51 58 65 73 78 86 91 101 109 119 128 136 
144 152 160 169 173 179 174 111 16 6 3 54 187 336 461 575 707 874 1051 1227 1346 
1398 1426 1476 1552 1645 1721 1789 1850 1905 1951 1992 2028 2053 2078 2093 2103 
2109 2113 2104 2075 2021 1936 1838 1733 1637 1581 
9 10 8 8 7 9 10 9 13 8 22 25 32 35 38 43 48 56 62 66 73 79 90 96 106 113 116 121 
123 127 128 128 122 82 15 2 3 55 185 334 495 644 826 1031 1238 1384 1437 1459 
1502 1582 1671 1757 1844 1917 1981 2035 2084 2124 2155 2183 2194 2201 2201 2195 
2188 2170 2138 2080 1973 1857 1742 1641 1581
9 10 9 9 8 9 10 11 14 11 10 17 17 13 27 30 26 26 30 33 38 47 55 65 78 89 100 111 
120 127 131 132 110 48 4 1 7 60 189 355 544 743 954 1097 1195 1275 1370 1470 
1562 1645 1729 1805 1886 1959 2024 2078 2128 2172 2208 2244 2268 2282 2295 2302 
2300 2271 2220 2138 2009 1875 1754 1647 1581

