IESNA:LM-63-2002
[TEST]253p131
[TESTLAB]METALUX LABORITORIES
[ISSUEDATE]07/30/07
[MANUFAC]COOPER LIGHTING - SHAPER
[LUMCAT]1200-OB-36-CFL/6/50 
[LUMINAIRE]SHAPER 36 INCH 1200 SERIES DIRECT/INDIRECT INDOOR PENDANT FIXTURE
[LAMP]SIX - F50BX - 50 WATTS
[MORE]SIX GX24 T4 COMPACT FLUORESCENT LAMPS 
TILT=NONE
6 4800 1 73 37 1 1 -3 -3 0
1 1 369
0 2.5 5 7.5 10 12.5 15 17.5 20 22.5 25 27.5 30 32.5 35 37.5 40 42.5 45 47.5 50 
52.5 55 57.5 60 62.5 65 67.5 70 72.5 75 77.5 80 82.5 85 87.5 90 92.5 95 97.5 100 
102.5 105 107.5 110 112.5 115 117.5 120 122.5 125 127.5 130 132.5 135 137.5 140 
142.5 145 147.5 150 152.5 155 157.5 160 162.5 165 167.5 170 172.5 175 177.5 180 
0 10 20 30 40 50 60 70 80 90 100 110 120 130 140 150 160 170 180 190 200 210 220 
230 240 250 260 270 280 290 300 310 320 330 340 350 360
0 0 0 0 0 0 0 0 0 0 0 0 0 0 0 0 0 0 0 0 0 0 0 0 0 0 0 0 0 0 0 0 0 0 0 0 8 182
508 932 1371 1877 2429 2900 3312 3601 3911 4281 4646 4980 5269 5482 5630 5724
5765 5820 5855 5865 5831 5764 5746 5697 5521 5259 4961 4660 4371 4071 3793 3551
3407 3324 3294
0 0 0 0 0 0 0 0 0 0 0 0 0 0 0 0 0 0 0 0 0 0 0 0 0 0 0 0 0 0 0 0 0 0 0 0 8 181
488 885 1288 1728 2201 2637 3028 3334 3657 4036 4385 4697 4978 5195 5360 5480
5603 5712 5791 5851 5852 5808 5778 5691 5497 5223 4944 4657 4372 4076 3799 3557
3412 3327 3294
0 0 0 0 0 0 0 0 0 0 0 0 0 0 0 0 0 0 0 0 0 0 0 0 0 0 0 0 0 0 0 0 0 0 0 0 7 178
467 836 1205 1577 1972 2371 2744 3067 3402 3791 4122 4412 4687 4908 5088 5235
5438 5602 5727 5837 5871 5850 5808 5684 5472 5184 4926 4651 4371 4080 3804 3562
3416 3331 3294
0 0 0 0 0 0 0 0 0 0 0 0 0 0 0 0 0 0 0 0 0 0 0 0 0 0 0 0 0 0 0 0 0 0 0 0 6 167
443 771 1099 1414 1754 2070 2383 2763 3115 3443 3825 4136 4345 4503 4662 4911
5148 5355 5506 5583 5682 5768 5716 5551 5307 5043 4770 4540 4283 4015 3761 3546
3405 3328 3294
0 0 0 0 0 0 0 0 0 0 0 0 0 0 0 0 0 0 0 0 0 0 0 0 0 0 0 0 0 0 0 0 0 0 0 0 7 190
507 855 1223 1580 1935 2264 2601 2975 3364 3686 3996 4283 4469 4634 4849 5074
5292 5451 5585 5690 5753 5773 5697 5488 5242 4977 4713 4455 4226 3968 3732 3541
3403 3323 3294
0 0 0 0 0 0 0 0 0 0 0 0 0 0 0 0 0 0 0 0 0 0 0 0 0 0 0 0 0 0 0 0 0 0 0 0 8 225
571 931 1309 1653 1988 2386 2760 3136 3518 3859 4136 4462 4794 5075 5305 5518
5695 5863 5982 6017 5959 5851 5720 5512 5254 4967 4694 4407 4169 3918 3707 3535
3398 3323 3294
0 0 0 0 0 0 0 0 0 0 0 0 0 0 0 0 0 0 0 0 0 0 0 0 0 0 0 0 0 0 0 0 0 0 0 0 7 260
624 1008 1375 1706 2088 2513 2900 3217 3536 3969 4358 4778 5140 5441 5687 5929
6079 6167 6146 6089 5973 5833 5712 5518 5249 4956 4656 4349 4113 3888 3697 3534
3397 3322 3294
0 0 0 0 0 0 0 0 0 0 0 0 0 0 0 0 0 0 0 0 0 0 0 0 0 0 0 0 0 0 0 0 0 0 0 0 7 228
575 945 1320 1675 2049 2437 2805 3149 3502 3888 4228 4570 4835 5066 5287 5514
5690 5805 5859 5888 5859 5785 5687 5491 5233 4960 4680 4396 4165 3927 3716 3541
3404 3325 3294
0 0 0 0 0 0 0 0 0 0 0 0 0 0 0 0 0 0 0 0 0 0 0 0 0 0 0 0 0 0 0 0 0 0 0 0 6 193
526 880 1264 1644 2008 2359 2708 3081 3466 3805 4097 4362 4529 4689 4886 5099
5299 5441 5572 5687 5742 5735 5661 5461 5217 4963 4702 4441 4216 3964 3733 3547
3410 3326 3294
0 0 0 0 0 0 0 0 0 0 0 0 0 0 0 0 0 0 0 0 0 0 0 0 0 0 0 0 0 0 0 0 0 0 0 0 6 131
402 721 1073 1418 1766 2086 2384 2770 3154 3480 3851 4156 4338 4459 4618 4864
5101 5306 5463 5553 5655 5745 5688 5517 5277 5019 4744 4516 4265 4001 3751 3544
3402 3323 3294
0 0 0 0 0 0 0 0 0 0 0 0 0 0 0 0 0 0 0 0 0 0 0 0 0 0 0 0 0 0 0 0 0 0 0 0 6 153
481 894 1310 1718 2140 2521 2859 3193 3506 3871 4178 4417 4640 4820 4964 5090
5293 5459 5591 5703 5762 5766 5724 5585 5373 5093 4839 4583 4318 4044 3782 3550
3405 3326 3294
0 0 0 0 0 0 0 0 0 0 0 0 0 0 0 0 0 0 0 0 0 0 0 0 0 0 0 0 0 0 0 0 0 0 0 0 8 168
495 914 1341 1798 2286 2712 3086 3398 3709 4077 4413 4699 4955 5151 5298 5408
5530 5641 5724 5785 5797 5766 5736 5642 5448 5177 4900 4622 4345 4058 3789 3551
3406 3326 3294
0 0 0 0 0 0 0 0 0 0 0 0 0 0 0 0 0 0 0 0 0 0 0 0 0 0 0 0 0 0 0 0 0 0 0 0 8 182
508 932 1371 1877 2429 2900 3312 3601 3911 4281 4646 4980 5269 5482 5630 5724
5765 5820 5855 5865 5831 5764 5746 5697 5521 5259 4961 4660 4371 4071 3793 3551
3407 3324 3294
0 0 0 0 0 0 0 0 0 0 0 0 0 0 0 0 0 0 0 0 0 0 0 0 0 0 0 0 0 0 0 0 0 0 0 0 8 181
488 885 1288 1728 2201 2637 3028 3334 3657 4036 4385 4697 4978 5195 5360 5480
5603 5712 5791 5851 5852 5808 5778 5691 5497 5223 4944 4657 4372 4076 3799 3557
3412 3327 3294
0 0 0 0 0 0 0 0 0 0 0 0 0 0 0 0 0 0 0 0 0 0 0 0 0 0 0 0 0 0 0 0 0 0 0 0 7 178
467 836 1205 1577 1972 2371 2744 3067 3402 3791 4122 4412 4687 4908 5088 5235
5438 5602 5727 5837 5871 5850 5808 5684 5472 5184 4926 4651 4371 4080 3804 3562
3416 3331 3294
0 0 0 0 0 0 0 0 0 0 0 0 0 0 0 0 0 0 0 0 0 0 0 0 0 0 0 0 0 0 0 0 0 0 0 0 6 167
443 771 1099 1414 1754 2070 2383 2763 3115 3443 3825 4136 4345 4503 4662 4911
5148 5355 5506 5583 5682 5768 5716 5551 5307 5043 4770 4540 4283 4015 3761 3546
3405 3328 3294
0 0 0 0 0 0 0 0 0 0 0 0 0 0 0 0 0 0 0 0 0 0 0 0 0 0 0 0 0 0 0 0 0 0 0 0 7 190
507 855 1223 1580 1935 2264 2601 2975 3364 3686 3996 4283 4469 4634 4849 5074
5292 5451 5585 5690 5753 5773 5697 5488 5242 4977 4713 4455 4226 3968 3732 3541
3403 3323 3294
0 0 0 0 0 0 0 0 0 0 0 0 0 0 0 0 0 0 0 0 0 0 0 0 0 0 0 0 0 0 0 0 0 0 0 0 8 225
571 931 1309 1653 1988 2386 2760 3136 3518 3859 4136 4462 4794 5075 5305 5518
5695 5863 5982 6017 5959 5851 5720 5512 5254 4967 4694 4407 4169 3918 3707 3535
3398 3323 3294
0 0 0 0 0 0 0 0 0 0 0 0 0 0 0 0 0 0 0 0 0 0 0 0 0 0 0 0 0 0 0 0 0 0 0 0 7 260
624 1008 1375 1706 2088 2513 2900 3217 3536 3969 4358 4778 5140 5441 5687 5929
6079 6167 6146 6089 5973 5833 5712 5518 5249 4956 4656 4349 4113 3888 3697 3534
3397 3322 3294
0 0 0 0 0 0 0 0 0 0 0 0 0 0 0 0 0 0 0 0 0 0 0 0 0 0 0 0 0 0 0 0 0 0 0 0 7 228
575 945 1320 1675 2049 2437 2805 3149 3502 3888 4228 4570 4835 5066 5287 5514
5690 5805 5859 5888 5859 5785 5687 5491 5233 4960 4680 4396 4165 3927 3716 3541
3404 3325 3294
0 0 0 0 0 0 0 0 0 0 0 0 0 0 0 0 0 0 0 0 0 0 0 0 0 0 0 0 0 0 0 0 0 0 0 0 6 193
526 880 1264 1644 2008 2359 2708 3081 3466 3805 4097 4362 4529 4689 4886 5099
5299 5441 5572 5687 5742 5735 5661 5461 5217 4963 4702 4441 4216 3964 3733 3547
3410 3326 3294
0 0 0 0 0 0 0 0 0 0 0 0 0 0 0 0 0 0 0 0 0 0 0 0 0 0 0 0 0 0 0 0 0 0 0 0 6 131
402 721 1073 1418 1766 2086 2384 2770 3154 3480 3851 4156 4338 4459 4618 4864
5101 5306 5463 5553 5655 5745 5688 5517 5277 5019 4744 4516 4265 4001 3751 3544
3402 3323 3294
0 0 0 0 0 0 0 0 0 0 0 0 0 0 0 0 0 0 0 0 0 0 0 0 0 0 0 0 0 0 0 0 0 0 0 0 6 153
481 894 1310 1718 2140 2521 2859 3193 3506 3871 4178 4417 4640 4820 4964 5090
5293 5459 5591 5703 5762 5766 5724 5585 5373 5093 4839 4583 4318 4044 3782 3550
3405 3326 3294
0 0 0 0 0 0 0 0 0 0 0 0 0 0 0 0 0 0 0 0 0 0 0 0 0 0 0 0 0 0 0 0 0 0 0 0 8 168
495 914 1341 1798 2286 2712 3086 3398 3709 4077 4413 4699 4955 5151 5298 5408
5530 5641 5724 5785 5797 5766 5736 5642 5448 5177 4900 4622 4345 4058 3789 3551
3406 3326 3294
0 0 0 0 0 0 0 0 0 0 0 0 0 0 0 0 0 0 0 0 0 0 0 0 0 0 0 0 0 0 0 0 0 0 0 0 8 182
508 932 1371 1877 2429 2900 3312 3601 3911 4281 4646 4980 5269 5482 5630 5724
5765 5820 5855 5865 5831 5764 5746 5697 5521 5259 4961 4660 4371 4071 3793 3551
3407 3324 3294
0 0 0 0 0 0 0 0 0 0 0 0 0 0 0 0 0 0 0 0 0 0 0 0 0 0 0 0 0 0 0 0 0 0 0 0 8 181
488 885 1288 1728 2201 2637 3028 3334 3657 4036 4385 4697 4978 5195 5360 5480
5603 5712 5791 5851 5852 5808 5778 5691 5497 5223 4944 4657 4372 4076 3799 3557
3412 3327 3294
0 0 0 0 0 0 0 0 0 0 0 0 0 0 0 0 0 0 0 0 0 0 0 0 0 0 0 0 0 0 0 0 0 0 0 0 7 178
467 836 1205 1577 1972 2371 2744 3067 3402 3791 4122 4412 4687 4908 5088 5235
5438 5602 5727 5837 5871 5850 5808 5684 5472 5184 4926 4651 4371 4080 3804 3562
3416 3331 3294
0 0 0 0 0 0 0 0 0 0 0 0 0 0 0 0 0 0 0 0 0 0 0 0 0 0 0 0 0 0 0 0 0 0 0 0 6 167
443 771 1099 1414 1754 2070 2383 2763 3115 3443 3825 4136 4345 4503 4662 4911
5148 5355 5506 5583 5682 5768 5716 5551 5307 5043 4770 4540 4283 4015 3761 3546
3405 3328 3294
0 0 0 0 0 0 0 0 0 0 0 0 0 0 0 0 0 0 0 0 0 0 0 0 0 0 0 0 0 0 0 0 0 0 0 0 7 190
507 855 1223 1580 1935 2264 2601 2975 3364 3686 3996 4283 4469 4634 4849 5074
5292 5451 5585 5690 5753 5773 5697 5488 5242 4977 4713 4455 4226 3968 3732 3541
3403 3323 3294
0 0 0 0 0 0 0 0 0 0 0 0 0 0 0 0 0 0 0 0 0 0 0 0 0 0 0 0 0 0 0 0 0 0 0 0 8 225
571 931 1309 1653 1988 2386 2760 3136 3518 3859 4136 4462 4794 5075 5305 5518
5695 5863 5982 6017 5959 5851 5720 5512 5254 4967 4694 4407 4169 3918 3707 3535
3398 3323 3294
0 0 0 0 0 0 0 0 0 0 0 0 0 0 0 0 0 0 0 0 0 0 0 0 0 0 0 0 0 0 0 0 0 0 0 0 7 260
624 1008 1375 1706 2088 2513 2900 3217 3536 3969 4358 4778 5140 5441 5687 5929
6079 6167 6146 6089 5973 5833 5712 5518 5249 4956 4656 4349 4113 3888 3697 3534
3397 3322 3294
0 0 0 0 0 0 0 0 0 0 0 0 0 0 0 0 0 0 0 0 0 0 0 0 0 0 0 0 0 0 0 0 0 0 0 0 7 228
575 945 1320 1675 2049 2437 2805 3149 3502 3888 4228 4570 4835 5066 5287 5514
5690 5805 5859 5888 5859 5785 5687 5491 5233 4960 4680 4396 4165 3927 3716 3541
3404 3325 3294
0 0 0 0 0 0 0 0 0 0 0 0 0 0 0 0 0 0 0 0 0 0 0 0 0 0 0 0 0 0 0 0 0 0 0 0 6 193
526 880 1264 1644 2008 2359 2708 3081 3466 3805 4097 4362 4529 4689 4886 5099
5299 5441 5572 5687 5742 5735 5661 5461 5217 4963 4702 4441 4216 3964 3733 3547
3410 3326 3294
0 0 0 0 0 0 0 0 0 0 0 0 0 0 0 0 0 0 0 0 0 0 0 0 0 0 0 0 0 0 0 0 0 0 0 0 6 131
402 721 1073 1418 1766 2086 2384 2770 3154 3480 3851 4156 4338 4459 4618 4864
5101 5306 5463 5553 5655 5745 5688 5517 5277 5019 4744 4516 4265 4001 3751 3544
3402 3323 3294
0 0 0 0 0 0 0 0 0 0 0 0 0 0 0 0 0 0 0 0 0 0 0 0 0 0 0 0 0 0 0 0 0 0 0 0 6 153
481 894 1310 1718 2140 2521 2859 3193 3506 3871 4178 4417 4640 4820 4964 5090
5293 5459 5591 5703 5762 5766 5724 5585 5373 5093 4839 4583 4318 4044 3782 3550
3405 3326 3294
0 0 0 0 0 0 0 0 0 0 0 0 0 0 0 0 0 0 0 0 0 0 0 0 0 0 0 0 0 0 0 0 0 0 0 0 8 168
495 914 1341 1798 2286 2712 3086 3398 3709 4077 4413 4699 4955 5151 5298 5408
5530 5641 5724 5785 5797 5766 5736 5642 5448 5177 4900 4622 4345 4058 3789 3551
3406 3326 3294
0 0 0 0 0 0 0 0 0 0 0 0 0 0 0 0 0 0 0 0 0 0 0 0 0 0 0 0 0 0 0 0 0 0 0 0 8 182
508 932 1371 1877 2429 2900 3312 3601 3911 4281 4646 4980 5269 5482 5630 5724
5765 5820 5855 5865 5831 5764 5746 5697 5521 5259 4961 4660 4371 4071 3793 3551
3407 3324 3294

