IESNA:LM-63-2002
[TEST]253P217
[TESTLAB]METALUX LABORATORIES
[ISSUEDATE]05/14/08
[MANUFAC]COOPER LIGHTING - SHAPER
[LUMCAT]1200-OB-44-CFL/8/27
[LUMINAIRE]SHAPER 44 INCH 1200 SERIES DIRECT/INDIRECT INDOOR PENDANT FIXTURE
[LAMP]EIGHT - F24BX/SPX35 - 1800 LUMENS - 24 WATTS
[OTHER]THIS FILE WAS PRORATED FROM TEST NO: 253P217
TILT=NONE
8 1800 1 73 17 1 1 -3.666667 -3.666667 0.1
1 1 316
0 2.5 5 7.5 10 12.5 15 17.5 20 22.5
25 27.5 30 32.5 35 37.5 40 42.5 45 47.5
50 52.5 55 57.5 60 62.5 65 67.5 70 72.5
75 77.5 80 82.5 85 87.5 90 92.5 95 97.5
100 102.5 105 107.5 110 112.5 115 117.5 120 122.5
125 127.5 130 132.5 135 137.5 140 142.5 145 147.5
150 152.5 155 157.5 160 162.5 165 167.5 170 172.5
175 177.5 180
0 22.5 45 67.5 90 112.5 135 157.5 180 202.5
225 247.5 270 292.5 315 337.5 360
0 0 0 0 0 0 0 0 0 0
0 0 0 0 0 0 0 0 0 0
0 0 0 0 0 0 0 0 0 0
0 0 0 0 0 0 8 393.1 901.1 1054.3
1216 1385.7 1532.6 1673.1 1798.3 1911.4 2137.1 2457.7 2645.1 2753.1
2834.3 2948 2986.9 2985.7 3039.4 3148 3235.4 3298.9 3353.1 3388.6
3408 3376 3242.3 3041.1 2830.3 2621.1 2457.7 2288 2098.3 1904
1720 1585.7 1517.7
0 0 0 0 0 0 0 0 0 0
0 0 0 0 0 0 0 0 0 0
0 0 0 0 0 0 0 0 0 0
0 0 0 0 0 0 9 425.1 825.7 1020
1230.3 1436.6 1609.7 1764 1889.7 2077.1 2390.3 2609.1 2757.1 2908
3047.4 3097.1 3088 3122.3 3215.4 3293.1 3348.6 3390.9 3420 3429.7
3411.4 3295.4 3105.1 2895.4 2685.7 2501.1 2342.3 2164.6 1986.9 1816.6
1662.9 1559.4 1517.7
0 0 0 0 0 0 0 0 0 0
0 0 0 0 0 0 0 0 0 0
0 0 0 0 0 0 0 0 0 0
0 0 0 0 0 0 9 193.1 484.6 756.6
1001.1 1202.9 1376.6 1559.4 1827.4 2084.6 2318.9 2496.6 2606.3 2645.1
2736 2895.4 3045.1 3166.3 3269.1 3369.1 3453.7 3497.7 3434.9 3305.1
3142.9 2968 2794.9 2642.9 2504.6 2345.1 2176.6 2005.7 1837.7 1689.1
1583.4 1525.1 1517.7
0 0 0 0 0 0 0 0 0 0
0 0 0 0 0 0 0 0 0 0
0 0 0 0 0 0 0 0 0 0
0 0 0 0 0 0 8 38.9 208.6 450.3
689.1 934.9 1175.4 1372 1501.1 1666.3 1909.7 2121.7 2296 2379.4
2464.6 2513.1 2522.3 2532.6 2550.9 2560.6 2566.9 2564 2563.4 2554.9
2514.9 2420.6 2309.7 2195.4 2081.7 1969.1 1858.9 1752.6 1657.7 1572
1510.3 1494.9 1517.7
0 0 0 0 0 0 0 0 0 0
0 0 0 0 0 0 0 0 0 0
0 0 0 0 0 0 0 0 0 0
0 0 0 0 0 0 6 36.6 121.1 212.6
316.6 418.9 522.9 622.9 711.4 782.3 926.9 1141.7 1235.4 1276.6
1289.1 1356.6 1408 1438.9 1502.9 1584 1661.7 1730.9 1777.1 1821.1
1868 1878.3 1840 1793.1 1745.1 1696 1648.6 1597.1 1546.9 1498.9
1466.3 1474.9 1517.7
0 0 0 0 0 0 0 0 0 0
0 0 0 0 0 0 0 0 0 0
0 0 0 0 0 0 0 0 0 0
0 0 0 0 0 0 13 102.3 307.4 476.6
650.3 851.4 1038.3 1184.6 1317.1 1490.3 1759.4 1927.4 2050.3 2168.6
2269.1 2316.6 2312 2316.6 2338.9 2357.1 2368.6 2358.3 2345.7 2337.7
2304.6 2213.1 2104.6 1994.9 1886.9 1781.1 1682.3 1592.6 1520.6 1466.9
1436 1456 1517.7
0 0 0 0 0 0 0 0 0 0
0 0 0 0 0 0 0 0 0 0
0 0 0 0 0 0 0 0 0 0
0 0 0 0 0 0 13 126.9 385.7 630.3
856 1032.6 1160 1309.7 1541.7 1789.1 1998.9 2162.3 2268.6 2309.1
2430.3 2613.1 2792 2938.9 3044 3144.6 3243.4 3291.4 3217.7 3075.4
2916.6 2750.3 2580 2418.3 2270.3 2112 1949.7 1785.1 1632 1506.3
1451.4 1446.9 1517.7
0 0 0 0 0 0 0 0 0 0
0 0 0 0 0 0 0 0 0 0
0 0 0 0 0 0 0 0 0 0
0 0 0 0 0 0 12 194.3 502.9 706.3
904.6 1105.1 1282.3 1438.9 1549.1 1724.6 2060.6 2364.6 2557.7 2616.6
2714.3 2767.4 2758.9 2820 2935.4 3042.3 3118.9 3162.9 3198.3 3228.6
3211.4 3072 2874.9 2672.6 2470.3 2282.9 2113.1 1936 1769.1 1615.4
1503.4 1472.6 1517.7
0 0 0 0 0 0 0 0 0 0
0 0 0 0 0 0 0 0 0 0
0 0 0 0 0 0 0 0 0 0
0 0 0 0 0 0 9 224.6 548.6 690.9
854.9 1026.3 1189.1 1342.9 1471.4 1569.7 1835.4 2254.3 2426.9 2487.4
2493.7 2596.6 2642.3 2637.7 2714.3 2846.3 2962.9 3056.6 3112 3160.6
3204 3173.1 3018.9 2820.6 2617.7 2416.6 2243.4 2065.1 1881.1 1700.6
1552.6 1493.7 1517.7
0 0 0 0 0 0 0 0 0 0
0 0 0 0 0 0 0 0 0 0
0 0 0 0 0 0 0 0 0 0
0 0 0 0 0 0 9 257.1 593.7 802.3
1008.6 1233.1 1437.1 1622.9 1736 1907.4 2289.7 2507.4 2610.3 2725.7
2878.3 2961.1 2963.4 3012.6 3123.4 3226.9 3309.7 3357.1 3397.7 3439.4
3432 3296.6 3101.1 2893.1 2686.3 2489.7 2306.9 2109.1 1912.6 1728
1581.1 1518.3 1517.7
0 0 0 0 0 0 0 0 0 0
0 0 0 0 0 0 0 0 0 0
0 0 0 0 0 0 0 0 0 0
0 0 0 0 0 0 6 165.7 490.9 784
1039.4 1241.7 1401.7 1557.1 1811.4 2066.9 2285.7 2478.9 2602.3 2637.7
2721.1 2882.9 3041.7 3171.4 3279.4 3374.3 3461.7 3518.3 3467.4 3332.6
3168.6 2994.3 2818.3 2661.7 2521.7 2361.1 2189.7 2017.1 1849.1 1700.6
1594.3 1530.9 1517.7
0 0 0 0 0 0 0 0 0 0
0 0 0 0 0 0 0 0 0 0
0 0 0 0 0 0 0 0 0 0
0 0 0 0 0 0 7 170.3 473.1 714.9
928 1148.6 1344 1513.1 1641.1 1820 2022.9 2207.4 2368 2523.4
2644 2684 2683.4 2672 2670.9 2662.3 2641.1 2630.9 2614.3 2576
2533.1 2460.6 2353.1 2235.4 2117.1 2010.9 1922.3 1834.3 1754.3 1683.4
1615.4 1561.1 1517.7
0 0 0 0 0 0 0 0 0 0
0 0 0 0 0 0 0 0 0 0
0 0 0 0 0 0 0 0 0 0
0 0 0 0 0 0 5 202.9 470.3 565.7
666.3 769.1 858.3 946.3 1033.7 1121.7 1226.3 1341.7 1450.3 1540
1629.7 1709.1 1756 1790.3 1833.7 1893.7 1943.4 1984.6 2029.7 2064
2086.9 2098.3 2081.7 2032 1977.1 1920 1881.1 1839.4 1783.4 1721.7
1654.3 1587.4 1517.7
0 0 0 0 0 0 0 0 0 0
0 0 0 0 0 0 0 0 0 0
0 0 0 0 0 0 0 0 0 0
0 0 0 0 0 0 9 285.1 673.1 903.4
1097.1 1324.6 1519.4 1684.6 1820.6 1988 2186.9 2364 2532 2677.7
2790.3 2857.1 2868.6 2858.3 2858.3 2848.6 2826.9 2809.1 2797.7 2772.6
2733.1 2660 2553.1 2433.7 2311.4 2201.7 2102.9 1994.3 1885.1 1784
1685.7 1601.1 1517.7
0 0 0 0 0 0 0 0 0 0
0 0 0 0 0 0 0 0 0 0
0 0 0 0 0 0 0 0 0 0
0 0 0 0 0 0 8 218.3 666.3 1033.7
1329.7 1528.6 1675.4 1845.7 2106.3 2381.7 2598.9 2780 2897.7 2938.3
3020 3165.1 3304 3406.9 3509.1 3600 3660.6 3699.4 3660.6 3534.9
3368.6 3191.4 3009.1 2853.1 2724 2571.4 2399.4 2219.4 2041.1 1869.7
1718.3 1590.9 1517.7
0 0 0 0 0 0 0 0 0 0
0 0 0 0 0 0 0 0 0 0
0 0 0 0 0 0 0 0 0 0
0 0 0 0 0 0 9 305.1 774.3 1065.7
1327.4 1561.1 1750.3 1932 2067.4 2238.3 2523.4 2792 2986.3 3100
3217.1 3278.9 3285.7 3326.3 3417.7 3497.1 3545.1 3594.3 3630.9 3642.9
3626.3 3507.4 3310.3 3100 2885.1 2690.3 2519.4 2324 2121.7 1920
1738.9 1601.7 1517.7
0 0 0 0 0 0 0 0 0 0
0 0 0 0 0 0 0 0 0 0
0 0 0 0 0 0 0 0 0 0
0 0 0 0 0 0 8 393.1 901.1 1054.3
1216 1385.7 1532.6 1673.1 1798.3 1911.4 2137.1 2457.7 2645.1 2753.1
2834.3 2948 2986.9 2985.7 3039.4 3148 3235.4 3298.9 3353.1 3388.6
3408 3376 3242.3 3041.1 2830.3 2621.1 2457.7 2288 2098.3 1904
1720 1585.7 1517.7
