IESNA:LM-63-2002
[TEST]253P216
[TESTLAB]METALUX LABORATORIES
[ISSUEDATE]05/14/08
[MANUFAC]COOPER LIGHTING - SHAPER
[LUMCAT]1200-OB-44-CFL/4/27
[LUMINAIRE]SHAPER 44 INCH 1200 SERIES DIRECT/INDIRECT INDOOR PENDANT FIXTURE
[LAMP]FOUR - F24BX/SPX35 - 1800 LUMENS - 24 WATTS
[OTHER]THIS FILE WAS PRORATED FROM TEST NO: 253P216
TILT=NONE
4 1800 1 73 17 1 1 -3.666667 -3.666667 0.1
1 1 160
0 2.5 5 7.5 10 12.5 15 17.5 20 22.5
25 27.5 30 32.5 35 37.5 40 42.5 45 47.5
50 52.5 55 57.5 60 62.5 65 67.5 70 72.5
75 77.5 80 82.5 85 87.5 90 92.5 95 97.5
100 102.5 105 107.5 110 112.5 115 117.5 120 122.5
125 127.5 130 132.5 135 137.5 140 142.5 145 147.5
150 152.5 155 157.5 160 162.5 165 167.5 170 172.5
175 177.5 180
0 22.5 45 67.5 90 112.5 135 157.5 180 202.5
225 247.5 270 292.5 315 337.5 360
0 0 0 0 0 0 0 0 0 0
0 0 0 0 0 0 0 0 0 0
0 0 0 0 0 0 0 0 0 0
0 0 0 0 0 0 1 289.7 558.9 631.4
719.4 773.7 827.4 961.7 1128 1209.1 1385.7 1590.9 1625.1 1620
1596 1651.4 1699.4 1723.4 1699.4 1656.6 1629.7 1628.6 1632 1595.4
1495.4 1377.7 1268.6 1147.4 1009.1 888 809.1 738.9 671.4 609.7
554.9 518.9 509.7
0 0 0 0 0 0 0 0 0 0
0 0 0 0 0 0 0 0 0 0
0 0 0 0 0 0 0 0 0 0
0 0 0 0 0 0 2 345.7 544.6 636
738.9 830.9 933.7 1110.3 1228.6 1358.9 1561.7 1619.4 1626.3 1624.6
1677.1 1732 1757.7 1738.9 1694.3 1662.9 1660.6 1665.1 1634.3 1540
1431.4 1322.3 1208 1074.3 948 852 782.3 716.6 654.3 596.6
548 516 509.7
0 0 0 0 0 0 0 0 0 0
0 0 0 0 0 0 0 0 0 0
0 0 0 0 0 0 0 0 0 0
0 0 0 0 0 0 3 167.4 370.3 513.1
622.9 753.7 934.3 1054.9 1236.6 1358.9 1429.1 1501.1 1585.7 1632.6
1639.4 1620.6 1612.6 1626.9 1644.6 1630.9 1565.1 1481.1 1393.1 1304
1198.3 1086.9 984.6 909.1 847.4 785.7 725.1 665.7 613.1 566.3
533.7 512 509.7
0 0 0 0 0 0 0 0 0 0
0 0 0 0 0 0 0 0 0 0
0 0 0 0 0 0 0 0 0 0
0 0 0 0 0 0 1 30.3 155.4 308.6
452.6 605.1 710.9 820.6 905.1 948.6 1044 1162.3 1238.9 1220
1230.9 1238.3 1216.6 1172 1121.1 1068.6 1022.9 985.7 952 914.3
876 834.9 793.7 752.6 710.9 670.9 633.1 596.6 568 540.6
520.6 509.7 509.7
0 0 0 0 0 0 0 0 0 0
0 0 0 0 0 0 0 0 0 0
0 0 0 0 0 0 0 0 0 0
0 0 0 0 0 0 1 22.3 90.9 149.7
194.3 220 275.4 332.6 384 405.1 471.4 597.1 621.7 634.3
632.6 688.6 730.3 742.3 743.4 742.3 740.6 735.4 725.7 714.3
700 681.1 661.1 642.3 622.9 602.9 584.6 565.1 545.1 527.4
514.9 510.3 509.7
0 0 0 0 0 0 0 0 0 0
0 0 0 0 0 0 0 0 0 0
0 0 0 0 0 0 0 0 0 0
0 0 0 0 0 0 4 79.4 225.1 336
413.7 521.1 644.6 738.9 798.3 841.1 941.7 988.6 1016.6 1041.1
1082.3 1106.3 1097.7 1076.6 1050.9 1017.7 982.9 948 913.1 877.7
841.7 802.9 762.9 723.4 684.6 646.3 612 580.6 553.7 530.9
516 509.1 509.7
0 0 0 0 0 0 0 0 0 0
0 0 0 0 0 0 0 0 0 0
0 0 0 0 0 0 0 0 0 0
0 0 0 0 0 0 6 113.1 296.6 433.1
536.6 660.6 785.7 845.7 981.1 1124.6 1237.1 1336 1432 1472
1482.9 1475.4 1468 1462.3 1456.6 1436 1389.1 1326.3 1257.7 1188.6
1113.7 1029.1 946.9 874.3 814.9 754.9 697.1 638.9 589.1 546.3
522.9 508.6 509.7
0 0 0 0 0 0 0 0 0 0
0 0 0 0 0 0 0 0 0 0
0 0 0 0 0 0 0 0 0 0
0 0 0 0 0 0 3 150.9 347.4 474.3
558.9 650.3 770.9 931.4 1022.3 1093.1 1296.6 1454.3 1528 1483.4
1550.9 1622.3 1638.3 1618.3 1583.4 1549.1 1524.6 1499.4 1459.4 1384
1296.6 1204 1113.1 1010.9 911.4 825.7 756.6 690.3 630.3 574.9
533.7 512.6 509.7
0 0 0 0 0 0 0 0 0 0
0 0 0 0 0 0 0 0 0 0
0 0 0 0 0 0 0 0 0 0
0 0 0 0 0 0 2 165.1 372 465.7
554.3 601.1 694.9 826.9 968 1019.4 1186.3 1458.9 1492.6 1490.3
1457.1 1550.3 1618.9 1632.6 1608 1569.1 1537.1 1514.9 1488.6 1439.4
1354.3 1257.7 1164 1065.7 958.3 860.6 786.9 716 649.7 589.7
541.1 516 509.7
0 0 0 0 0 0 0 0 0 0
0 0 0 0 0 0 0 0 0 0
0 0 0 0 0 0 0 0 0 0
0 0 0 0 0 0 0 205.1 417.7 531.4
633.7 735.4 854.3 1001.7 1103.4 1199.4 1427.4 1506.3 1535.4 1562.9
1651.4 1720.6 1731.4 1704.6 1659.4 1613.7 1581.7 1550.3 1502.3 1420.6
1330.9 1238.9 1142.9 1037.7 935.4 849.1 777.7 708.6 643.4 584.6
539.4 516 509.7
0 0 0 0 0 0 0 0 0 0
0 0 0 0 0 0 0 0 0 0
0 0 0 0 0 0 0 0 0 0
0 0 0 0 0 0 0 144 359.4 518.9
618.9 745.1 917.1 1021.1 1182.9 1300 1373.1 1448 1532 1582.9
1596.6 1584.6 1580 1593.1 1610.9 1603.4 1548.6 1469.1 1385.7 1300.6
1202.3 1094.3 993.1 913.7 851.4 788.6 729.1 669.7 616 569.1
537.1 516.6 509.7
0 0 0 0 0 0 0 0 0 0
0 0 0 0 0 0 0 0 0 0
0 0 0 0 0 0 0 0 0 0
0 0 0 0 0 0 1 130.3 288.6 416.6
535.4 649.7 738.9 871.4 966.9 1050.3 1132 1185.7 1218.9 1217.7
1213.1 1211.4 1208.6 1185.1 1146.3 1112.6 1094.9 1089.1 1074.3 1029.1
974.3 917.1 861.7 794.9 729.1 678.3 641.1 608 581.7 554.9
532 515.4 509.7
0 0 0 0 0 0 0 0 0 0
0 0 0 0 0 0 0 0 0 0
0 0 0 0 0 0 0 0 0 0
0 0 0 0 0 0 0 144.6 269.7 302.9
344.6 380 396.6 457.1 537.1 589.1 666.3 725.7 749.7 760.6
769.1 788.6 808.6 832 836 829.7 833.1 850.3 869.1 870.3
841.1 802.3 766.9 726.3 676 633.7 610.3 590.3 570.3 552
533.1 518.9 509.7
0 0 0 0 0 0 0 0 0 0
0 0 0 0 0 0 0 0 0 0
0 0 0 0 0 0 0 0 0 0
0 0 0 0 0 0 2 220 426.3 524
627.4 735.4 829.1 934.3 1022.9 1114.9 1196 1238.9 1273.1 1293.7
1296.6 1292.6 1282.9 1258.3 1216 1173.1 1146.3 1128 1104.6 1055.4
999.4 942.3 881.7 812.6 746.3 694.9 657.7 622.9 592 562.3
538.3 520.6 509.7
0 0 0 0 0 0 0 0 0 0
0 0 0 0 0 0 0 0 0 0
0 0 0 0 0 0 0 0 0 0
0 0 0 0 0 0 3 181.1 448 642.3
747.4 864.6 1056.6 1181.1 1372 1480.6 1537.7 1577.7 1635.4 1682.9
1701.7 1680.6 1673.1 1692.6 1726.9 1734.3 1675.4 1581.7 1483.4 1386.3
1274.3 1144 1022.9 932.6 871.4 809.1 749.1 688.6 634.3 583.4
545.7 520 509.7
0 0 0 0 0 0 0 0 0 0
0 0 0 0 0 0 0 0 0 0
0 0 0 0 0 0 0 0 0 0
0 0 0 0 0 0 3 230.3 486.3 636
782.3 888 981.7 1159.4 1288.6 1406.3 1592.6 1713.1 1772 1738.3
1762.9 1800 1815.4 1786.9 1730.9 1684.6 1665.1 1662.3 1638.9 1552.6
1447.4 1336.6 1229.1 1098.9 972 872 798.9 729.1 665.7 604
553.1 519.4 509.7
0 0 0 0 0 0 0 0 0 0
0 0 0 0 0 0 0 0 0 0
0 0 0 0 0 0 0 0 0 0
0 0 0 0 0 0 1 289.7 558.9 631.4
719.4 773.7 827.4 961.7 1128 1209.1 1385.7 1590.9 1625.1 1620
1596 1651.4 1699.4 1723.4 1699.4 1656.6 1629.7 1628.6 1632 1595.4
1495.4 1377.7 1268.6 1147.4 1009.1 888 809.1 738.9 671.4 609.7
554.9 518.9 509.7
