IESNA:LM-63-2002
[TEST]253P217
[TESTLAB]METALUX LABORATORIES
[ISSUEDATE]05/14/08
[MANUFAC]COOPER LIGHTING - SHAPER
[LUMCAT]1200-OB-44-CFL/8/39
[LUMINAIRE]SHAPER 44 INCH 1200 SERIES DIRECT/INDIRECT INDOOR PENDANT FIXTURE
[LAMP]EIGHT - F39BX/SPX35 - 2850 LUMENS - 39 WATTS
[OTHER]THIS FILE WAS PRORATED FROM TEST NO: 253P217
TILT=NONE
8 2850 1 73 17 1 1 -3.666667 -3.666667 0.1
1 1 316
0 2.5 5 7.5 10 12.5 15 17.5 20 22.5
25 27.5 30 32.5 35 37.5 40 42.5 45 47.5
50 52.5 55 57.5 60 62.5 65 67.5 70 72.5
75 77.5 80 82.5 85 87.5 90 92.5 95 97.5
100 102.5 105 107.5 110 112.5 115 117.5 120 122.5
125 127.5 130 132.5 135 137.5 140 142.5 145 147.5
150 152.5 155 157.5 160 162.5 165 167.5 170 172.5
175 177.5 180
0 22.5 45 67.5 90 112.5 135 157.5 180 202.5
225 247.5 270 292.5 315 337.5 360
0 0 0 0 0 0 0 0 0 0
0 0 0 0 0 0 0 0 0 0
0 0 0 0 0 0 0 0 0 0
0 0 0 0 0 0 8 622.5 1426.8 1669.3
1925.3 2194 2426.6 2649.1 2847.3 3026.4 3383.8 3891.4 4188.1 4359.1
4487.6 4667.7 4729.2 4727.4 4812.4 4984.3 5122.8 5223.2 5309.1 5365.2
5396 5345.3 5133.6 4815.1 4481.3 4150.1 3891.4 3622.7 3322.3 3014.7
2723.3 2510.7 2403
0 0 0 0 0 0 0 0 0 0
0 0 0 0 0 0 0 0 0 0
0 0 0 0 0 0 0 0 0 0
0 0 0 0 0 0 9 673.1 1307.4 1615
1948 2274.6 2548.7 2793 2992 3288.8 3784.6 4131.1 4365.5 4604.3
4825.1 4903.8 4889.3 4943.6 5091.1 5214.1 5301.9 5368.9 5415 5430.4
5401.4 5217.8 4916.5 4584.4 4252.4 3960.1 3708.6 3427.2 3145.9 2876.2
2632.9 2469.1 2403
0 0 0 0 0 0 0 0 0 0
0 0 0 0 0 0 0 0 0 0
0 0 0 0 0 0 0 0 0 0
0 0 0 0 0 0 9 305.8 767.2 1197.9
1585.1 1904.5 2179.6 2469.1 2893.4 3300.6 3671.5 3952.9 4126.6 4188.1
4332 4584.4 4821.5 5013.3 5176.1 5334.5 5468.4 5538 5438.5 5233.1
4976.2 4699.3 4425.2 4184.5 3965.6 3713.1 3446.2 3175.7 2909.7 2674.5
2507.1 2414.8 2403
0 0 0 0 0 0 0 0 0 0
0 0 0 0 0 0 0 0 0 0
0 0 0 0 0 0 0 0 0 0
0 0 0 0 0 0 8 61.5 330.2 713
1091.1 1480.2 1861.1 2172.3 2376.8 2638.3 3023.7 3359.4 3635.3 3767.4
3902.2 3979.1 3993.6 4009.9 4038.9 4054.2 4064.2 4059.7 4058.8 4045.2
3981.9 3832.6 3657 3476.1 3296 3117.8 2943.2 2774.9 2624.7 2489
2391.3 2366.9 2403
0 0 0 0 0 0 0 0 0 0
0 0 0 0 0 0 0 0 0 0
0 0 0 0 0 0 0 0 0 0
0 0 0 0 0 0 6 57.9 191.8 336.6
501.2 663.2 827.9 986.2 1126.4 1238.6 1467.5 1807.7 1956.1 2021.2
2041.1 2147.9 2229.3 2278.2 2379.5 2508 2631 2740.5 2813.8 2883.5
2957.7 2974 2913.3 2839.1 2763.1 2685.3 2610.2 2528.8 2449.2 2373.2
2321.6 2335.2 2403
0 0 0 0 0 0 0 0 0 0
0 0 0 0 0 0 0 0 0 0
0 0 0 0 0 0 0 0 0 0
0 0 0 0 0 0 13 162 486.8 754.6
1029.6 1348.1 1644 1875.6 2085.5 2359.6 2785.8 3051.8 3246.3 3433.6
3592.8 3667.9 3660.7 3667.9 3703.2 3732.1 3750.2 3734 3714 3701.4
3648.9 3504.1 3332.2 3158.5 2987.5 2820.1 2663.6 2521.6 2407.6 2322.5
2273.7 2305.3 2403
0 0 0 0 0 0 0 0 0 0
0 0 0 0 0 0 0 0 0 0
0 0 0 0 0 0 0 0 0 0
0 0 0 0 0 0 13 200.9 610.7 998
1355.3 1634.9 1836.7 2073.7 2441 2832.8 3164.9 3423.6 3591.9 3656.1
3848 4137.5 4420.7 4653.2 4819.7 4978.9 5135.4 5211.4 5094.7 4869.4
4617.9 4354.6 4085 3829 3594.6 3344 3087 2826.5 2584 2385
2298.1 2290.9 2403
0 0 0 0 0 0 0 0 0 0
0 0 0 0 0 0 0 0 0 0
0 0 0 0 0 0 0 0 0 0
0 0 0 0 0 0 12 307.6 796.2 1118.3
1432.2 1749.8 2030.3 2278.2 2452.8 2730.6 3262.6 3743.9 4049.7 4142.9
4297.6 4381.8 4368.2 4465 4647.8 4817 4938.2 5007.9 5064 5111.9
5084.8 4864 4551.9 4231.6 3911.3 3614.5 3345.8 3065.3 2801.1 2557.8
2380.4 2331.6 2403
0 0 0 0 0 0 0 0 0 0
0 0 0 0 0 0 0 0 0 0
0 0 0 0 0 0 0 0 0 0
0 0 0 0 0 0 9 355.6 868.6 1093.9
1353.5 1625 1882.8 2126.2 2329.8 2485.4 2906.1 3569.3 3842.5 3938.4
3948.4 4111.2 4183.6 4176.4 4297.6 4506.6 4691.2 4839.6 4927.3 5004.2
5073 5024.1 4779.9 4465.9 4144.7 3826.2 3552.1 3269.8 2978.5 2692.6
2458.2 2365 2403
0 0 0 0 0 0 0 0 0 0
0 0 0 0 0 0 0 0 0 0
0 0 0 0 0 0 0 0 0 0
0 0 0 0 0 0 9 407.1 940 1270.3
1596.9 1952.5 2275.5 2569.5 2748.7 3020.1 3625.4 3970.1 4133 4315.7
4557.3 4688.5 4692.1 4769.9 4945.4 5109.2 5240.4 5315.5 5379.7 5445.8
5434 5219.6 4910.1 4580.8 4253.3 3942 3652.5 3339.5 3028.2 2736
2503.5 2404 2403
0 0 0 0 0 0 0 0 0 0
0 0 0 0 0 0 0 0 0 0
0 0 0 0 0 0 0 0 0 0
0 0 0 0 0 0 6 262.4 777.2 1241.3
1645.8 1966 2219.4 2465.5 2868.1 3272.5 3619 3924.9 4120.3 4176.4
4308.5 4564.5 4816 5021.4 5192.4 5342.6 5481 5570.6 5490.1 5276.6
5016.9 4741 4462.3 4214.4 3992.7 3738.5 3467 3193.8 2927.8 2692.6
2524.3 2423.9 2403
0 0 0 0 0 0 0 0 0 0
0 0 0 0 0 0 0 0 0 0
0 0 0 0 0 0 0 0 0 0
0 0 0 0 0 0 7 269.6 749.1 1131.9
1469.3 1818.6 2128 2395.8 2598.5 2881.7 3202.9 3495.1 3749.3 3995.4
4186.3 4249.7 4248.8 4230.7 4228.9 4215.3 4181.8 4165.5 4139.3 4078.7
4010.8 3895.9 3725.8 3539.4 3352.1 3183.9 3043.6 2904.3 2777.6 2665.4
2557.8 2471.8 2403
0 0 0 0 0 0 0 0 0 0
0 0 0 0 0 0 0 0 0 0
0 0 0 0 0 0 0 0 0 0
0 0 0 0 0 0 5 321.2 744.6 895.7
1055 1217.8 1359 1498.3 1636.7 1776 1941.6 2124.4 2296.3 2438.3
2580.4 2706.1 2780.3 2834.6 2903.4 2998.4 3077.1 3142.2 3213.7 3268
3304.2 3322.3 3296 3217.3 3130.5 3040 2978.5 2912.4 2823.8 2726
2619.3 2513.4 2403
0 0 0 0 0 0 0 0 0 0
0 0 0 0 0 0 0 0 0 0
0 0 0 0 0 0 0 0 0 0
0 0 0 0 0 0 9 451.5 1065.8 1430.4
1737.1 2097.2 2405.8 2667.2 2882.6 3147.7 3462.5 3743 4009 4239.7
4418 4523.8 4541.9 4525.6 4525.6 4510.2 4475.9 4447.8 4429.7 4389.9
4327.5 4211.7 4042.5 3853.4 3659.8 3486 3329.5 3157.6 2984.8 2824.7
2669 2535.1 2403
0 0 0 0 0 0 0 0 0 0
0 0 0 0 0 0 0 0 0 0
0 0 0 0 0 0 0 0 0 0
0 0 0 0 0 0 8 345.6 1055 1636.7
2105.4 2420.2 2652.8 2922.4 3335 3771 4114.9 4401.7 4588 4652.3
4781.7 5011.5 5231.3 5394.2 5556.1 5700 5795.9 5857.4 5795.9 5596.9
5333.6 5053.1 4764.5 4517.5 4313 4071.4 3799.1 3514.1 3231.8 2960.4
2720.6 2518.9 2403
0 0 0 0 0 0 0 0 0 0
0 0 0 0 0 0 0 0 0 0
0 0 0 0 0 0 0 0 0 0
0 0 0 0 0 0 9 483.1 1226 1687.4
2101.8 2471.8 2771.3 3059 3273.4 3544 3995.4 4420.7 4728.3 4908.3
5093.8 5191.5 5202.4 5266.6 5411.4 5537.1 5613.1 5691 5748.9 5767.9
5741.6 5553.4 5241.3 4908.3 4568.1 4259.6 3989.1 3679.7 3359.4 3040
2753.2 2536 2403
0 0 0 0 0 0 0 0 0 0
0 0 0 0 0 0 0 0 0 0
0 0 0 0 0 0 0 0 0 0
0 0 0 0 0 0 8 622.5 1426.8 1669.3
1925.3 2194 2426.6 2649.1 2847.3 3026.4 3383.8 3891.4 4188.1 4359.1
4487.6 4667.7 4729.2 4727.4 4812.4 4984.3 5122.8 5223.2 5309.1 5365.2
5396 5345.3 5133.6 4815.1 4481.3 4150.1 3891.4 3622.7 3322.3 3014.7
2723.3 2510.7 2403
