IESNA:LM-63-2002
[TEST]253P216
[TESTLAB]METALUX LABORATORIES
[ISSUEDATE]05/14/08
[MANUFAC]COOPER LIGHTING - SHAPER
[LUMCAT]1200-OB-44-CFL/4/39
[LUMINAIRE]SHAPER 44 INCH 1200 SERIES DIRECT/INDIRECT INDOOR PENDANT FIXTURE
[LAMP]FOUR - F39BX/SPX35 - 2850 LUMENS - 39 WATTS
[OTHER]THIS FILE WAS PRORATED FROM TEST NO: 253P216
TILT=NONE
4 2850 1 73 17 1 1 -3.666667 -3.666667 0.1
1 1 160
0 2.5 5 7.5 10 12.5 15 17.5 20 22.5
25 27.5 30 32.5 35 37.5 40 42.5 45 47.5
50 52.5 55 57.5 60 62.5 65 67.5 70 72.5
75 77.5 80 82.5 85 87.5 90 92.5 95 97.5
100 102.5 105 107.5 110 112.5 115 117.5 120 122.5
125 127.5 130 132.5 135 137.5 140 142.5 145 147.5
150 152.5 155 157.5 160 162.5 165 167.5 170 172.5
175 177.5 180
0 22.5 45 67.5 90 112.5 135 157.5 180 202.5
225 247.5 270 292.5 315 337.5 360
0 0 0 0 0 0 0 0 0 0
0 0 0 0 0 0 0 0 0 0
0 0 0 0 0 0 0 0 0 0
0 0 0 0 0 0 1 458.7 884.9 999.8
1139.1 1225 1310.1 1522.7 1786 1914.5 2194 2518.9 2573.1 2565
2527 2614.8 2690.8 2728.8 2690.8 2622.9 2580.4 2578.6 2584 2526.1
2367.8 2181.4 2008.6 1816.8 1597.8 1406 1281.1 1169.9 1063.1 965.4
878.5 821.5 807
0 0 0 0 0 0 0 0 0 0
0 0 0 0 0 0 0 0 0 0
0 0 0 0 0 0 0 0 0 0
0 0 0 0 0 0 2 547.4 862.2 1007
1169.9 1315.5 1478.4 1758 1945.2 2151.5 2472.7 2564.1 2575 2572.2
2655.5 2742.3 2783 2753.2 2682.6 2632.9 2629.2 2636.5 2587.6 2438.3
2266.4 2093.6 1912.7 1701 1501 1349 1238.6 1134.6 1036 944.6
867.7 817 807
0 0 0 0 0 0 0 0 0 0
0 0 0 0 0 0 0 0 0 0
0 0 0 0 0 0 0 0 0 0
0 0 0 0 0 0 3 265.1 586.3 812.5
986.2 1193.4 1479.3 1670.2 1957.9 2151.5 2262.8 2376.8 2510.7 2584.9
2595.8 2565.9 2553.2 2575.9 2603.9 2582.2 2478.1 2345.1 2205.8 2064.7
1897.3 1720.9 1558.9 1439.5 1341.8 1244 1148.1 1054 970.8 896.6
845 810.7 807
0 0 0 0 0 0 0 0 0 0
0 0 0 0 0 0 0 0 0 0
0 0 0 0 0 0 0 0 0 0
0 0 0 0 0 0 1 48 246.1 488.6
716.6 958.1 1125.5 1299.2 1433.1 1501.9 1653 1840.3 1961.5 1931.7
1948.9 1960.6 1926.2 1855.7 1775.1 1691.9 1619.5 1560.7 1507.3 1447.6
1387 1321.9 1256.7 1191.6 1125.5 1062.2 1002.5 944.6 899.3 855.9
824.2 807 807
0 0 0 0 0 0 0 0 0 0
0 0 0 0 0 0 0 0 0 0
0 0 0 0 0 0 0 0 0 0
0 0 0 0 0 0 1 35.3 143.9 237
307.6 348.3 436.1 526.6 608 641.5 746.4 945.5 984.4 1004.3
1001.6 1090.2 1156.3 1175.3 1177.1 1175.3 1172.6 1164.4 1149 1131
1108.3 1078.5 1046.8 1017 986.2 954.5 925.6 894.8 863.1 835.1
815.2 808 807
0 0 0 0 0 0 0 0 0 0
0 0 0 0 0 0 0 0 0 0
0 0 0 0 0 0 0 0 0 0
0 0 0 0 0 0 4 125.8 356.5 532
655 825.1 1020.6 1169.9 1264 1331.8 1491 1565.2 1609.6 1648.5
1713.6 1751.6 1738 1704.6 1663.9 1611.4 1556.2 1501 1445.8 1389.7
1332.7 1271.2 1207.9 1145.4 1083.9 1023.3 969 919.2 876.7 840.5
817 806.1 807
0 0 0 0 0 0 0 0 0 0
0 0 0 0 0 0 0 0 0 0
0 0 0 0 0 0 0 0 0 0
0 0 0 0 0 0 6 179.1 469.6 685.8
849.6 1045.9 1244 1339 1553.5 1780.6 1958.8 2115.3 2267.3 2330.7
2347.9 2336.1 2324.3 2315.3 2306.2 2273.7 2199.5 2100 1991.4 1881.9
1763.4 1629.5 1499.2 1384.3 1290.2 1195.2 1103.8 1011.5 932.8 865
827.9 805.2 807
0 0 0 0 0 0 0 0 0 0
0 0 0 0 0 0 0 0 0 0
0 0 0 0 0 0 0 0 0 0
0 0 0 0 0 0 3 238.9 550.1 751
884.9 1029.6 1220.5 1474.8 1618.6 1730.8 2052.9 2302.6 2419.3 2348.8
2455.5 2568.6 2594 2562.3 2507.1 2452.8 2413.9 2374.1 2310.8 2191.3
2052.9 1906.3 1762.5 1600.5 1443.1 1307.4 1197.9 1093 998 910.2
845 811.6 807
0 0 0 0 0 0 0 0 0 0
0 0 0 0 0 0 0 0 0 0
0 0 0 0 0 0 0 0 0 0
0 0 0 0 0 0 2 261.5 589 737.4
877.6 951.8 1100.2 1309.2 1532.7 1614.1 1878.3 2309.9 2363.2 2359.6
2307.1 2454.6 2563.2 2584.9 2546 2484.5 2433.8 2398.5 2356.9 2279.1
2144.3 1991.4 1843 1687.4 1517.3 1362.6 1245.9 1133.7 1028.7 933.7
856.8 817 807
0 0 0 0 0 0 0 0 0 0
0 0 0 0 0 0 0 0 0 0
0 0 0 0 0 0 0 0 0 0
0 0 0 0 0 0 0 324.8 661.4 841.4
1003.4 1164.4 1352.6 1586 1747.1 1899.1 2260.1 2385 2431.1 2474.5
2614.8 2724.2 2741.4 2698.9 2627.4 2555 2504.4 2454.6 2378.6 2249.2
2107.2 1961.5 1809.5 1643 1481.1 1344.5 1231.4 1121.9 1018.8 925.6
854.1 817 807
0 0 0 0 0 0 0 0 0 0
0 0 0 0 0 0 0 0 0 0
0 0 0 0 0 0 0 0 0 0
0 0 0 0 0 0 0 228 569.1 821.5
979.9 1179.8 1452.1 1616.8 1872.9 2058.3 2174.1 2292.7 2425.7 2506.2
2527.9 2508.9 2501.7 2522.5 2550.5 2538.8 2451.9 2326.1 2194 2059.2
1903.6 1732.6 1572.5 1446.7 1348.1 1248.6 1154.5 1060.4 975.3 901.1
850.5 817.9 807
0 0 0 0 0 0 0 0 0 0
0 0 0 0 0 0 0 0 0 0
0 0 0 0 0 0 0 0 0 0
0 0 0 0 0 0 1 206.3 456.9 659.6
847.8 1028.7 1169.9 1379.8 1530.9 1663 1792.3 1877.4 1929.9 1928
1920.8 1918.1 1913.6 1876.5 1815 1761.6 1733.5 1724.5 1701 1629.5
1542.6 1452.1 1364.4 1258.5 1154.5 1074 1015.1 962.7 921 878.5
842.3 816.1 807
0 0 0 0 0 0 0 0 0 0
0 0 0 0 0 0 0 0 0 0
0 0 0 0 0 0 0 0 0 0
0 0 0 0 0 0 0 228.9 427 479.5
545.6 601.7 627.9 723.8 850.5 932.8 1055 1149 1187 1204.2
1217.8 1248.6 1280.2 1317.3 1323.7 1313.7 1319.1 1346.3 1376.1 1378
1331.8 1270.3 1214.2 1150 1070.3 1003.4 966.3 934.6 903 874
844.1 821.5 807
0 0 0 0 0 0 0 0 0 0
0 0 0 0 0 0 0 0 0 0
0 0 0 0 0 0 0 0 0 0
0 0 0 0 0 0 2 348.3 675 829.7
993.4 1164.4 1312.8 1479.3 1619.5 1765.2 1893.7 1961.5 2015.8 2048.4
2052.9 2046.6 2031.2 1992.3 1925.3 1857.5 1815 1786 1748.9 1671.1
1582.4 1492 1396 1286.6 1181.6 1100.2 1041.4 986.2 937.3 890.3
852.3 824.2 807
0 0 0 0 0 0 0 0 0 0
0 0 0 0 0 0 0 0 0 0
0 0 0 0 0 0 0 0 0 0
0 0 0 0 0 0 3 286.8 709.3 1017
1183.4 1368.9 1672.9 1870.1 2172.3 2344.2 2434.7 2498 2589.4 2664.5
2694.4 2660.9 2649.1 2679.9 2734.2 2746 2652.8 2504.4 2348.8 2195
2017.6 1811.3 1619.5 1476.6 1379.8 1281.1 1186.1 1090.2 1004.3 923.8
864 823.3 807
0 0 0 0 0 0 0 0 0 0
0 0 0 0 0 0 0 0 0 0
0 0 0 0 0 0 0 0 0 0
0 0 0 0 0 0 3 364.6 770 1007
1238.6 1406 1554.4 1835.8 2040.2 2226.6 2521.6 2712.5 2805.7 2752.3
2791.2 2850 2874.4 2829.2 2740.5 2667.2 2636.5 2632 2594.9 2458.2
2291.8 2116.2 1946.1 1739.9 1539 1380.7 1264.9 1154.5 1054 956.3
875.8 822.4 807
0 0 0 0 0 0 0 0 0 0
0 0 0 0 0 0 0 0 0 0
0 0 0 0 0 0 0 0 0 0
0 0 0 0 0 0 1 458.7 884.9 999.8
1139.1 1225 1310.1 1522.7 1786 1914.5 2194 2518.9 2573.1 2565
2527 2614.8 2690.8 2728.8 2690.8 2622.9 2580.4 2578.6 2584 2526.1
2367.8 2181.4 2008.6 1816.8 1597.8 1406 1281.1 1169.9 1063.1 965.4
878.5 821.5 807
