IESNA:LM-63-2002
[TEST]253p171
[TESTLAB]METALUX LABORITORIES
[ISSUEDATE]10/31/07
[MANUFAC]COOPER LIGHTING - SHAPER
[LUMCAT]1200-OB-36-CFL/6/39 
[LUMINAIRE] SHAPER 36 INCH 1200 SERIES DIRECT/INDIRECT INDOOR PENDANT FIXTURE
[MORE][LAMP]SIX - F39BX - 2850 LUMENS - 39 WATTS SIX - GX24 T4
[MORE]COMPACT FLUORESCENT LAMPS
[OTHER]THIS FILE WAS PRORATED FROM TEST NO: 253p171
TILT=NONE
6 2850 1 73 25 1 1 -3 -3 0.1
1 1 99
0 2.5 5 7.5 10 12.5 15 17.5 20 22.5
25 27.5 30 32.5 35 37.5 40 42.5 45 47.5
50 52.5 55 57.5 60 62.5 65 67.5 70 72.5
75 77.5 80 82.5 85 87.5 90 92.5 95 97.5
100 102.5 105 107.5 110 112.5 115 117.5 120 122.5
125 127.5 130 132.5 135 137.5 140 142.5 145 147.5
150 152.5 155 157.5 160 162.5 165 167.5 170 172.5
175 177.5 180
0 20 30 40 60 80 90 100 120 140
150 160 180 200 210 220 240 260 270 280
300 320 330 340 360
3 4 3 4 3 3 4 3 3 3
3 3 2 1 1 1 1 2 1 0
0 1 0 0 1 0 0 0 0 0
0 0 1 0 0 1 4 38 202.7 433.4
699.4 1026 1377 1691 1960.6 2207.6 2430.2 2645.5 2843.7 3015.6
3168.5 3307.8 3421.8 3524 3589.2 3616.3 3625.4 3610.9 3594.6 3576.5
3529.5 3430 3294.2 3136.8 2967.6 2793.9 2619.3 2444.7 2280 2142.5
2054.7 2018.5 2008.6
3 4 4 4 4 3 3 4 3 3
3 2 2 1 1 1 1 1 1 1
1 1 0 0 1 1 0 0 0 0
0 0 1 1 0 0 4 43.4 215.3 440.6
698.5 955.4 1214.2 1445.8 1663 1884.6 2087.3 2308 2524.3 2718.8
2868.1 2986.6 3092.5 3206.5 3303.3 3393.8 3465.2 3515 3547.6 3529.5
3458.9 3336.8 3193.8 3041.8 2891.6 2739.6 2582.2 2422 2271.9 2143.4
2056.5 2021.2 2008.6
3 4 4 4 4 3 4 3 3 3
2 2 2 2 1 1 1 1 0 0
0 1 0 1 1 0 0 1 0 0
0 1 1 1 1 1 5 45.2 204.5 380
584.5 791.7 985.3 1165.3 1364.4 1584.2 1818.6 2038.4 2250.1 2450.1
2613.9 2753.2 2894.3 3022.8 3132.3 3225.5 3302.4 3386.5 3439 3438.1
3362.1 3244.5 3113.3 2961.3 2820.1 2676.3 2530.6 2384 2242.9 2126.2
2048.4 2014.9 2008.6
3 4 3 4 4 4 3 4 3 3
3 3 1 2 1 1 1 1 1 1
1 1 1 0 1 1 0 0 0 1
1 0 1 1 1 0 5 57.9 236.1 439.7
668.6 893.9 1083.9 1269.4 1470.2 1692.8 1920.8 2141.6 2314.4 2482.7
2649.1 2797.5 2926 3036.4 3125 3207.4 3283.4 3329.5 3343.1 3312.3
3247.2 3136.8 3008.3 2869 2729.7 2594 2461 2329.8 2207.6 2106.3
2042 2010.4 2008.6
3 4 3 3 3 3 3 3 3 3
3 2 2 2 1 1 1 2 1 1
1 1 0 0 0 0 0 0 0 0
0 0 1 0 0 0 4 84.1 286.8 533.8
759.1 993.4 1225 1459.4 1689.2 1912.7 2161.5 2433.8 2674.5 2859
3072.6 3268 3411 3483.3 3501.4 3491.5 3466.1 3427.2 3380.2 3325.9
3255.3 3141.3 2993 2833.7 2670 2517 2385 2266.4 2166 2093.6
2040.2 2004 2008.6
3 3 3 3 3 3 3 3 3 3
3 3 3 2 1 1 1 2 0 0
0 0 0 0 0 0 0 0 0 0
0 0 0 0 0 0 3 55.2 209 428
670.4 915.6 1128.2 1322.8 1543.5 1767 1997.7 2227.5 2393.1 2546
2693.5 2833.7 2964.9 3069.9 3136.8 3209.2 3281.6 3329.5 3344 3315
3256.2 3147.7 3019.2 2879 2740.5 2600.3 2467.3 2334.3 2211.2 2108.1
2042 2008.6 2008.6
3 3 3 3 3 3 3 3 3 3
3 3 3 1 2 2 0 2 0 0
0 0 0 0 0 0 0 0 0 0
0 0 0 0 0 0 3 32.6 139.3 322.1
543.8 770 975.3 1176.2 1395.1 1640.3 1890 2116.2 2309.9 2490.8
2636.5 2774.9 2915.1 3030 3127.8 3213.7 3291.5 3376.6 3430 3429
3360.3 3243.6 3111.5 2963.1 2820.1 2676.3 2532.4 2384 2244.7 2128
2048.4 2014 2008.6
3 4 3 3 3 3 3 3 3 3
3 3 3 1 1 0 0 1 0 0
0 0 0 0 0 0 0 0 0 0
0 0 1 0 0 0 3 40.7 178.2 418.9
698.5 960.9 1213.3 1466.6 1710 1940.7 2154.2 2356.9 2547.8 2725.1
2870.8 2988.4 3082.5 3185.7 3283.4 3370.2 3443.5 3495.1 3538.5 3524
3452.6 3331.3 3188.4 3035.5 2886.2 2735.1 2577.7 2416.6 2267.3 2140.7
2052.9 2017.6 2008.6
3 4 3 4 3 3 4 3 3 3
3 3 2 1 1 1 1 2 1 0
0 1 0 0 1 0 0 0 0 0
0 0 1 0 0 1 4 38 202.7 433.4
699.4 1026 1377 1691 1960.6 2207.6 2430.2 2645.5 2843.7 3015.6
3168.5 3307.8 3421.8 3524 3589.2 3616.3 3625.4 3610.9 3594.6 3576.5
3529.5 3430 3294.2 3136.8 2967.6 2793.9 2619.3 2444.7 2280 2142.5
2054.7 2018.5 2008.6
3 4 4 4 4 3 3 4 3 3
3 2 2 1 1 1 1 1 1 1
1 1 0 0 1 1 0 0 0 0
0 0 1 1 0 0 4 43.4 215.3 440.6
698.5 955.4 1214.2 1445.8 1663 1884.6 2087.3 2308 2524.3 2718.8
2868.1 2986.6 3092.5 3206.5 3303.3 3393.8 3465.2 3515 3547.6 3529.5
3458.9 3336.8 3193.8 3041.8 2891.6 2739.6 2582.2 2422 2271.9 2143.4
2056.5 2021.2 2008.6
3 4 4 4 4 3 4 3 3 3
2 2 2 2 1 1 1 1 0 0
0 1 0 1 1 0 0 1 0 0
0 1 1 1 1 1 5 45.2 204.5 380
584.5 791.7 985.3 1165.3 1364.4 1584.2 1818.6 2038.4 2250.1 2450.1
2613.9 2753.2 2894.3 3022.8 3132.3 3225.5 3302.4 3386.5 3439 3438.1
3362.1 3244.5 3113.3 2961.3 2820.1 2676.3 2530.6 2384 2242.9 2126.2
2048.4 2014.9 2008.6
3 4 3 4 4 4 3 4 3 3
3 3 1 2 1 1 1 1 1 1
1 1 1 0 1 1 0 0 0 1
1 0 1 1 1 0 5 57.9 236.1 439.7
668.6 893.9 1083.9 1269.4 1470.2 1692.8 1920.8 2141.6 2314.4 2482.7
2649.1 2797.5 2926 3036.4 3125 3207.4 3283.4 3329.5 3343.1 3312.3
3247.2 3136.8 3008.3 2869 2729.7 2594 2461 2329.8 2207.6 2106.3
2042 2010.4 2008.6
3 4 3 3 3 3 3 3 3 3
3 2 2 2 1 1 1 2 1 1
1 1 0 0 0 0 0 0 0 0
0 0 1 0 0 0 4 84.1 286.8 533.8
759.1 993.4 1225 1459.4 1689.2 1912.7 2161.5 2433.8 2674.5 2859
3072.6 3268 3411 3483.3 3501.4 3491.5 3466.1 3427.2 3380.2 3325.9
3255.3 3141.3 2993 2833.7 2670 2517 2385 2266.4 2166 2093.6
2040.2 2004 2008.6
3 3 3 3 3 3 3 3 3 3
3 3 3 2 1 1 1 2 0 0
0 0 0 0 0 0 0 0 0 0
0 0 0 0 0 0 3 55.2 209 428
670.4 915.6 1128.2 1322.8 1543.5 1767 1997.7 2227.5 2393.1 2546
2693.5 2833.7 2964.9 3069.9 3136.8 3209.2 3281.6 3329.5 3344 3315
3256.2 3147.7 3019.2 2879 2740.5 2600.3 2467.3 2334.3 2211.2 2108.1
2042 2008.6 2008.6
3 3 3 3 3 3 3 3 3 3
3 3 3 1 2 2 0 2 0 0
0 0 0 0 0 0 0 0 0 0
0 0 0 0 0 0 3 32.6 139.3 322.1
543.8 770 975.3 1176.2 1395.1 1640.3 1890 2116.2 2309.9 2490.8
2636.5 2774.9 2915.1 3030 3127.8 3213.7 3291.5 3376.6 3430 3429
3360.3 3243.6 3111.5 2963.1 2820.1 2676.3 2532.4 2384 2244.7 2128
2048.4 2014 2008.6
3 4 3 3 3 3 3 3 3 3
3 3 3 1 1 0 0 1 0 0
0 0 0 0 0 0 0 0 0 0
0 0 1 0 0 0 3 40.7 178.2 418.9
698.5 960.9 1213.3 1466.6 1710 1940.7 2154.2 2356.9 2547.8 2725.1
2870.8 2988.4 3082.5 3185.7 3283.4 3370.2 3443.5 3495.1 3538.5 3524
3452.6 3331.3 3188.4 3035.5 2886.2 2735.1 2577.7 2416.6 2267.3 2140.7
2052.9 2017.6 2008.6
3 4 3 4 3 3 4 3 3 3
3 3 2 1 1 1 1 2 1 0
0 1 0 0 1 0 0 0 0 0
0 0 1 0 0 1 4 38 202.7 433.4
699.4 1026 1377 1691 1960.6 2207.6 2430.2 2645.5 2843.7 3015.6
3168.5 3307.8 3421.8 3524 3589.2 3616.3 3625.4 3610.9 3594.6 3576.5
3529.5 3430 3294.2 3136.8 2967.6 2793.9 2619.3 2444.7 2280 2142.5
2054.7 2018.5 2008.6
3 4 4 4 4 3 3 4 3 3
3 2 2 1 1 1 1 1 1 1
1 1 0 0 1 1 0 0 0 0
0 0 1 1 0 0 4 43.4 215.3 440.6
698.5 955.4 1214.2 1445.8 1663 1884.6 2087.3 2308 2524.3 2718.8
2868.1 2986.6 3092.5 3206.5 3303.3 3393.8 3465.2 3515 3547.6 3529.5
3458.9 3336.8 3193.8 3041.8 2891.6 2739.6 2582.2 2422 2271.9 2143.4
2056.5 2021.2 2008.6
3 4 4 4 4 3 4 3 3 3
2 2 2 2 1 1 1 1 0 0
0 1 0 1 1 0 0 1 0 0
0 1 1 1 1 1 5 45.2 204.5 380
584.5 791.7 985.3 1165.3 1364.4 1584.2 1818.6 2038.4 2250.1 2450.1
2613.9 2753.2 2894.3 3022.8 3132.3 3225.5 3302.4 3386.5 3439 3438.1
3362.1 3244.5 3113.3 2961.3 2820.1 2676.3 2530.6 2384 2242.9 2126.2
2048.4 2014.9 2008.6
3 4 3 4 4 4 3 4 3 3
3 3 1 2 1 1 1 1 1 1
1 1 1 0 1 1 0 0 0 1
1 0 1 1 1 0 5 57.9 236.1 439.7
668.6 893.9 1083.9 1269.4 1470.2 1692.8 1920.8 2141.6 2314.4 2482.7
2649.1 2797.5 2926 3036.4 3125 3207.4 3283.4 3329.5 3343.1 3312.3
3247.2 3136.8 3008.3 2869 2729.7 2594 2461 2329.8 2207.6 2106.3
2042 2010.4 2008.6
3 4 3 3 3 3 3 3 3 3
3 2 2 2 1 1 1 2 1 1
1 1 0 0 0 0 0 0 0 0
0 0 1 0 0 0 4 84.1 286.8 533.8
759.1 993.4 1225 1459.4 1689.2 1912.7 2161.5 2433.8 2674.5 2859
3072.6 3268 3411 3483.3 3501.4 3491.5 3466.1 3427.2 3380.2 3325.9
3255.3 3141.3 2993 2833.7 2670 2517 2385 2266.4 2166 2093.6
2040.2 2004 2008.6
3 3 3 3 3 3 3 3 3 3
3 3 3 2 1 1 1 2 0 0
0 0 0 0 0 0 0 0 0 0
0 0 0 0 0 0 3 55.2 209 428
670.4 915.6 1128.2 1322.8 1543.5 1767 1997.7 2227.5 2393.1 2546
2693.5 2833.7 2964.9 3069.9 3136.8 3209.2 3281.6 3329.5 3344 3315
3256.2 3147.7 3019.2 2879 2740.5 2600.3 2467.3 2334.3 2211.2 2108.1
2042 2008.6 2008.6
3 3 3 3 3 3 3 3 3 3
3 3 3 1 2 2 0 2 0 0
0 0 0 0 0 0 0 0 0 0
0 0 0 0 0 0 3 32.6 139.3 322.1
543.8 770 975.3 1176.2 1395.1 1640.3 1890 2116.2 2309.9 2490.8
2636.5 2774.9 2915.1 3030 3127.8 3213.7 3291.5 3376.6 3430 3429
3360.3 3243.6 3111.5 2963.1 2820.1 2676.3 2532.4 2384 2244.7 2128
2048.4 2014 2008.6
3 4 3 3 3 3 3 3 3 3
3 3 3 1 1 0 0 1 0 0
0 0 0 0 0 0 0 0 0 0
0 0 1 0 0 0 3 40.7 178.2 418.9
698.5 960.9 1213.3 1466.6 1710 1940.7 2154.2 2356.9 2547.8 2725.1
2870.8 2988.4 3082.5 3185.7 3283.4 3370.2 3443.5 3495.1 3538.5 3524
3452.6 3331.3 3188.4 3035.5 2886.2 2735.1 2577.7 2416.6 2267.3 2140.7
2052.9 2017.6 2008.6
3 4 3 4 3 3 4 3 3 3
3 3 2 1 1 1 1 2 1 0
0 1 0 0 1 0 0 0 0 0
0 0 1 0 0 1 4 38 202.7 433.4
699.4 1026 1377 1691 1960.6 2207.6 2430.2 2645.5 2843.7 3015.6
3168.5 3307.8 3421.8 3524 3589.2 3616.3 3625.4 3610.9 3594.6 3576.5
3529.5 3430 3294.2 3136.8 2967.6 2793.9 2619.3 2444.7 2280 2142.5
2054.7 2018.5 2008.6
