IESNA:LM-63-2002
[TEST]253p172
[TESTLAB]METALUX LABORITORIES
[ISSUEDATE]10/31/07
[MANUFAC]COOPER LIGHTING - SHAPER
[LUMCAT]1200-OB-36-CFL/3/39 
[LUMINAIRE] SHAPER 36 INCH 1200 SERIES DIRECT/INDIRECT INDOOR PENDANT FIXTURE
[LAMP]THREE - F39BX - 2850 LUMENS - 39 WATTS THREE GX24 T4 COMPACT
[MORE]FLUORESCENT LAMPS
[OTHER]THIS FILE WAS PRORATED FROM TEST NO: 253p172
[OTHER]
TILT=NONE
3 2850 1 73 25 1 1 -3 -3 0.1
1 1 50
0 2.5 5 7.5 10 12.5 15 17.5 20 22.5
25 27.5 30 32.5 35 37.5 40 42.5 45 47.5
50 52.5 55 57.5 60 62.5 65 67.5 70 72.5
75 77.5 80 82.5 85 87.5 90 92.5 95 97.5
100 102.5 105 107.5 110 112.5 115 117.5 120 122.5
125 127.5 130 132.5 135 137.5 140 142.5 145 147.5
150 152.5 155 157.5 160 162.5 165 167.5 170 172.5
175 177.5 180
0 20 30 40 60 80 90 100 120 140
150 160 180 200 210 220 240 260 270 280
300 320 330 340 360
0 0 1 1 0 0 0 0 0 0
0 0 0 0 0 0 0 0 0 0
0 0 0 0 0 0 0 0 0 0
0 0 0 0 0 0 1 22.6 135.7 292.2
454.2 665.9 882.1 1057.7 1186.1 1310.1 1402.4 1481.1 1535.4 1579.7
1627.7 1679.2 1717.2 1730.8 1734.4 1732.6 1724.5 1706.4 1676.5 1653.9
1638.5 1614.1 1571.6 1514.6 1445.8 1371.6 1297.4 1222.3 1154.5 1105.6
1083.9 1081.2 1080.3
0 0 1 1 0 1 1 0 0 0
0 0 0 0 0 0 0 0 0 0
0 0 0 0 0 0 0 0 0 0
0 0 0 0 0 0 2 25.3 127.6 271.4
422.5 549.2 694 826 940 1047.7 1130 1232.3 1345.4 1445.8
1527.2 1584.2 1606 1628.6 1656.6 1681 1698.2 1701 1695.5 1682.9
1659.3 1610.5 1542.6 1468.4 1401.5 1341.8 1276.6 1210.6 1148.1 1104.7
1083.9 1082.1 1080.3
0 0 1 1 0 1 0 0 0 0
0 0 0 0 0 0 0 0 0 0
0 0 0 0 0 0 0 0 0 0
0 0 0 0 0 0 1 24.4 113.1 219.9
329.3 444.2 539.2 663.2 778.1 888.5 1017.9 1126.4 1226 1340
1437.7 1505.5 1558 1590.6 1607.8 1625.9 1643 1662 1675.6 1668.4
1632.2 1577.9 1513.7 1435 1364.4 1300.1 1243.1 1185.2 1131.9 1094.8
1076.7 1079.4 1080.3
0 0 1 1 1 0 0 0 0 0
0 0 0 0 0 0 0 0 0 0
0 0 0 0 0 0 0 0 0 0
0 0 0 0 0 0 2 37.1 136.6 255.1
366.4 478.6 569.1 670.4 779.9 908.4 1036 1158.1 1240.4 1324.6
1420.5 1495.6 1549 1590.6 1602.3 1601.4 1613.2 1625 1632.2 1614.1
1572.5 1512.8 1449.4 1382.5 1311.9 1248.6 1196.1 1151.8 1113.8 1085.7
1073 1074.9 1080.3
0 0 1 0 0 0 0 0 0 0
0 0 0 0 0 0 0 0 0 0
0 0 0 0 0 0 0 0 0 0
0 0 0 0 0 0 1 40.7 151.1 291.3
423.4 539.2 638.8 735.6 870.4 1015.1 1164.4 1310.1 1414.1 1482
1585.1 1670.2 1732.6 1773.3 1783.3 1756.1 1720.9 1689.2 1652.1 1618.6
1568.9 1495.6 1419.6 1340 1258.5 1188 1140.9 1113.8 1092 1081.2
1074 1073 1080.3
0 0 0 0 0 0 0 0 0 0
0 0 0 0 0 0 0 0 0 0
0 0 0 0 0 0 0 0 0 0
0 0 0 0 0 0 0 18.1 77.8 219
357.4 486.8 599 709.3 826 960 1109.2 1245.9 1312.8 1376.1
1448.5 1527.2 1573.4 1579.7 1585.1 1587.9 1606 1622.2 1634 1619.5
1579.7 1522.7 1459.4 1392.4 1321.9 1258.5 1204.2 1159.9 1119.2 1090.2
1076.7 1076.7 1080.3
0 0 0 0 0 0 0 0 0 0
0 0 0 0 0 0 0 0 0 0
0 0 0 0 0 0 0 0 0 0
0 0 0 0 0 0 0 13.6 67 197.2
329.3 445.1 555.5 692.1 821.5 956.3 1105.6 1212.4 1289.3 1383.4
1461.2 1548 1571.6 1579.7 1591.5 1615.9 1636.7 1661.1 1675.6 1666.6
1632.2 1579.7 1517.3 1440.4 1368 1305.6 1249.5 1191.6 1136.4 1098.4
1079.4 1079.4 1080.3
0 0 1 0 0 0 0 0 0 0
0 0 0 0 0 0 0 0 0 0
0 0 0 0 0 0 0 0 0 0
0 0 0 0 0 0 1 20.8 100.4 270.5
431.6 553.7 693 846 1003.4 1135.5 1226 1297.4 1393.3 1470.2
1560.7 1602.3 1594.2 1606.9 1634.9 1664.8 1688.3 1695.5 1690.1 1677.4
1653.9 1607.8 1541.7 1469.3 1402.4 1340.9 1277.5 1211.5 1149 1104.7
1082.1 1080.3 1080.3
0 0 1 1 0 0 0 0 0 0
0 0 0 0 0 0 0 0 0 0
0 0 0 0 0 0 0 0 0 0
0 0 0 0 0 0 1 22.6 135.7 292.2
454.2 665.9 882.1 1057.7 1186.1 1310.1 1402.4 1481.1 1535.4 1579.7
1627.7 1679.2 1717.2 1730.8 1734.4 1732.6 1724.5 1706.4 1676.5 1653.9
1638.5 1614.1 1571.6 1514.6 1445.8 1371.6 1297.4 1222.3 1154.5 1105.6
1083.9 1081.2 1080.3
0 0 1 1 0 1 1 0 0 0
0 0 0 0 0 0 0 0 0 0
0 0 0 0 0 0 0 0 0 0
0 0 0 0 0 0 2 25.3 127.6 271.4
422.5 549.2 694 826 940 1047.7 1130 1232.3 1345.4 1445.8
1527.2 1584.2 1606 1628.6 1656.6 1681 1698.2 1701 1695.5 1682.9
1659.3 1610.5 1542.6 1468.4 1401.5 1341.8 1276.6 1210.6 1148.1 1104.7
1083.9 1082.1 1080.3
0 0 1 1 0 1 0 0 0 0
0 0 0 0 0 0 0 0 0 0
0 0 0 0 0 0 0 0 0 0
0 0 0 0 0 0 1 24.4 113.1 219.9
329.3 444.2 539.2 663.2 778.1 888.5 1017.9 1126.4 1226 1340
1437.7 1505.5 1558 1590.6 1607.8 1625.9 1643 1662 1675.6 1668.4
1632.2 1577.9 1513.7 1435 1364.4 1300.1 1243.1 1185.2 1131.9 1094.8
1076.7 1079.4 1080.3
0 0 1 1 1 0 0 0 0 0
0 0 0 0 0 0 0 0 0 0
0 0 0 0 0 0 0 0 0 0
0 0 0 0 0 0 2 37.1 136.6 255.1
366.4 478.6 569.1 670.4 779.9 908.4 1036 1158.1 1240.4 1324.6
1420.5 1495.6 1549 1590.6 1602.3 1601.4 1613.2 1625 1632.2 1614.1
1572.5 1512.8 1449.4 1382.5 1311.9 1248.6 1196.1 1151.8 1113.8 1085.7
1073 1074.9 1080.3
0 0 1 0 0 0 0 0 0 0
0 0 0 0 0 0 0 0 0 0
0 0 0 0 0 0 0 0 0 0
0 0 0 0 0 0 1 40.7 151.1 291.3
423.4 539.2 638.8 735.6 870.4 1015.1 1164.4 1310.1 1414.1 1482
1585.1 1670.2 1732.6 1773.3 1783.3 1756.1 1720.9 1689.2 1652.1 1618.6
1568.9 1495.6 1419.6 1340 1258.5 1188 1140.9 1113.8 1092 1081.2
1074 1073 1080.3
0 0 0 0 0 0 0 0 0 0
0 0 0 0 0 0 0 0 0 0
0 0 0 0 0 0 0 0 0 0
0 0 0 0 0 0 0 18.1 77.8 219
357.4 486.8 599 709.3 826 960 1109.2 1245.9 1312.8 1376.1
1448.5 1527.2 1573.4 1579.7 1585.1 1587.9 1606 1622.2 1634 1619.5
1579.7 1522.7 1459.4 1392.4 1321.9 1258.5 1204.2 1159.9 1119.2 1090.2
1076.7 1076.7 1080.3
0 0 0 0 0 0 0 0 0 0
0 0 0 0 0 0 0 0 0 0
0 0 0 0 0 0 0 0 0 0
0 0 0 0 0 0 0 13.6 67 197.2
329.3 445.1 555.5 692.1 821.5 956.3 1105.6 1212.4 1289.3 1383.4
1461.2 1548 1571.6 1579.7 1591.5 1615.9 1636.7 1661.1 1675.6 1666.6
1632.2 1579.7 1517.3 1440.4 1368 1305.6 1249.5 1191.6 1136.4 1098.4
1079.4 1079.4 1080.3
0 0 1 0 0 0 0 0 0 0
0 0 0 0 0 0 0 0 0 0
0 0 0 0 0 0 0 0 0 0
0 0 0 0 0 0 1 20.8 100.4 270.5
431.6 553.7 693 846 1003.4 1135.5 1226 1297.4 1393.3 1470.2
1560.7 1602.3 1594.2 1606.9 1634.9 1664.8 1688.3 1695.5 1690.1 1677.4
1653.9 1607.8 1541.7 1469.3 1402.4 1340.9 1277.5 1211.5 1149 1104.7
1082.1 1080.3 1080.3
0 0 1 1 0 0 0 0 0 0
0 0 0 0 0 0 0 0 0 0
0 0 0 0 0 0 0 0 0 0
0 0 0 0 0 0 1 22.6 135.7 292.2
454.2 665.9 882.1 1057.7 1186.1 1310.1 1402.4 1481.1 1535.4 1579.7
1627.7 1679.2 1717.2 1730.8 1734.4 1732.6 1724.5 1706.4 1676.5 1653.9
1638.5 1614.1 1571.6 1514.6 1445.8 1371.6 1297.4 1222.3 1154.5 1105.6
1083.9 1081.2 1080.3
0 0 1 1 0 1 1 0 0 0
0 0 0 0 0 0 0 0 0 0
0 0 0 0 0 0 0 0 0 0
0 0 0 0 0 0 2 25.3 127.6 271.4
422.5 549.2 694 826 940 1047.7 1130 1232.3 1345.4 1445.8
1527.2 1584.2 1606 1628.6 1656.6 1681 1698.2 1701 1695.5 1682.9
1659.3 1610.5 1542.6 1468.4 1401.5 1341.8 1276.6 1210.6 1148.1 1104.7
1083.9 1082.1 1080.3
0 0 1 1 0 1 0 0 0 0
0 0 0 0 0 0 0 0 0 0
0 0 0 0 0 0 0 0 0 0
0 0 0 0 0 0 1 24.4 113.1 219.9
329.3 444.2 539.2 663.2 778.1 888.5 1017.9 1126.4 1226 1340
1437.7 1505.5 1558 1590.6 1607.8 1625.9 1643 1662 1675.6 1668.4
1632.2 1577.9 1513.7 1435 1364.4 1300.1 1243.1 1185.2 1131.9 1094.8
1076.7 1079.4 1080.3
0 0 1 1 1 0 0 0 0 0
0 0 0 0 0 0 0 0 0 0
0 0 0 0 0 0 0 0 0 0
0 0 0 0 0 0 2 37.1 136.6 255.1
366.4 478.6 569.1 670.4 779.9 908.4 1036 1158.1 1240.4 1324.6
1420.5 1495.6 1549 1590.6 1602.3 1601.4 1613.2 1625 1632.2 1614.1
1572.5 1512.8 1449.4 1382.5 1311.9 1248.6 1196.1 1151.8 1113.8 1085.7
1073 1074.9 1080.3
0 0 1 0 0 0 0 0 0 0
0 0 0 0 0 0 0 0 0 0
0 0 0 0 0 0 0 0 0 0
0 0 0 0 0 0 1 40.7 151.1 291.3
423.4 539.2 638.8 735.6 870.4 1015.1 1164.4 1310.1 1414.1 1482
1585.1 1670.2 1732.6 1773.3 1783.3 1756.1 1720.9 1689.2 1652.1 1618.6
1568.9 1495.6 1419.6 1340 1258.5 1188 1140.9 1113.8 1092 1081.2
1074 1073 1080.3
0 0 0 0 0 0 0 0 0 0
0 0 0 0 0 0 0 0 0 0
0 0 0 0 0 0 0 0 0 0
0 0 0 0 0 0 0 18.1 77.8 219
357.4 486.8 599 709.3 826 960 1109.2 1245.9 1312.8 1376.1
1448.5 1527.2 1573.4 1579.7 1585.1 1587.9 1606 1622.2 1634 1619.5
1579.7 1522.7 1459.4 1392.4 1321.9 1258.5 1204.2 1159.9 1119.2 1090.2
1076.7 1076.7 1080.3
0 0 0 0 0 0 0 0 0 0
0 0 0 0 0 0 0 0 0 0
0 0 0 0 0 0 0 0 0 0
0 0 0 0 0 0 0 13.6 67 197.2
329.3 445.1 555.5 692.1 821.5 956.3 1105.6 1212.4 1289.3 1383.4
1461.2 1548 1571.6 1579.7 1591.5 1615.9 1636.7 1661.1 1675.6 1666.6
1632.2 1579.7 1517.3 1440.4 1368 1305.6 1249.5 1191.6 1136.4 1098.4
1079.4 1079.4 1080.3
0 0 1 0 0 0 0 0 0 0
0 0 0 0 0 0 0 0 0 0
0 0 0 0 0 0 0 0 0 0
0 0 0 0 0 0 1 20.8 100.4 270.5
431.6 553.7 693 846 1003.4 1135.5 1226 1297.4 1393.3 1470.2
1560.7 1602.3 1594.2 1606.9 1634.9 1664.8 1688.3 1695.5 1690.1 1677.4
1653.9 1607.8 1541.7 1469.3 1402.4 1340.9 1277.5 1211.5 1149 1104.7
1082.1 1080.3 1080.3
0 0 1 1 0 0 0 0 0 0
0 0 0 0 0 0 0 0 0 0
0 0 0 0 0 0 0 0 0 0
0 0 0 0 0 0 1 22.6 135.7 292.2
454.2 665.9 882.1 1057.7 1186.1 1310.1 1402.4 1481.1 1535.4 1579.7
1627.7 1679.2 1717.2 1730.8 1734.4 1732.6 1724.5 1706.4 1676.5 1653.9
1638.5 1614.1 1571.6 1514.6 1445.8 1371.6 1297.4 1222.3 1154.5 1105.6
1083.9 1081.2 1080.3
