IESNA:LM-63-2002
[TEST]P31428
[TESTLAB]INNOVATIONS CENTER-P3
[ISSUEDATE]01/17/12
[MANUFAC] COOPER LIGHTING - HALO
[LUMCAT]PD8H142E-82HWWC_26DTT
[LUMINAIRE]HALO 8-INCH APERTURE OPEN WALL WASH DOWNLIGHT, HORIZONTAL
[MORE]LAMP, SPECULAR CLEAR TRIM WITH SPECULAR KICKER.
[LAMPCAT]CF26DD/E/IN/841 26 WATTS
[LAMP](1) SYLVANIA G24Q-3 SINGLE END FOUR PIN BASE DTT CFL LAMP
[MORE]4100K
[BALLASTCAT]SYLVANIA QTP2x26CF/UNV DM
[BALLAST](1) SYLVANIA ELECTRONIC BALLAST
[OTHER]INPUT WATTS: 24.61, VAC:120.05, AMPS: 0.20541, AMB TEMP: 24.3
[MORE]C BALLAST FACTOR: 1.0; PREBURN PRIOR TO TEST: 12 HR, TOTAL
[MORE]OPERATING TIME: 13 HR, STABILIZATION: 30 MIN
[_MOUNTING]RECESSED
[_WARNING_TEST]THIS TEST WAS PERFORMED USING A SPECIFIC BALLAST \ LAMP
[MORE]COMBINATION. EXTRAPOLATION OF THESE DATA FOR OTHER
[MORE]BALLAST\LAMP COMBINATIONS MAY PRODUCE ERRONEOUS RESULTS
[_WARNING_RELATIVE]RELATIVE PHOTOMETRY IS BASED ON RELATIONAL FACTORS CREATED
[MORE]USING MANUFACTURERS PUBLISHED DATA AND A BARE LAMP SUM FOR
[MORE]THE LAMP UNDER TEST IN GONIOPHOTOMETER WITH TEST DISTANCE OF
[MORE]24 FT
TILT=NONE
1 1710 1 37 23 1 1 -0.53125 -0.53125 0.1
1 1 24.6
0 2.5 5 7.5 10 12.5 15 17.5 20 22.5
25 27.5 30 32.5 35 37.5 40 42.5 45 47.5
50 52.5 55 57.5 60 62.5 65 67.5 70 72.5
75 77.5 80 82.5 85 87.5 90
0 5 10 15 20 25 30 35 40 45
50 55 60 65 70 75 80 85 90 112.5
135 157.5 180
293 286 292 308 332 354 367 367 358 360
383 406 424 427 419 399 374 342 301 267
240 207 182 145 120 93 73 52 43 35
28 21 17 11 3 1 0
293 280 287 303 329 349 363 364 358 361
379 402 416 417 402 381 360 335 298 265
238 209 176 144 116 92 69 51 41 34
26 21 16 10 3 0 0
293 279 287 302 330 353 369 370 366 369
391 411 422 418 399 371 342 322 297 271
245 211 177 141 114 87 66 49 41 33
26 20 16 10 3 0 0
293 282 292 312 340 363 377 381 378 384
406 426 433 426 405 375 348 324 295 273
250 218 181 145 113 87 65 49 40 33
26 21 16 11 3 0 0
293 285 297 318 345 369 385 392 390 398
419 435 437 430 413 390 363 333 295 271
249 220 183 147 116 91 68 49 40 33
26 21 16 11 3 0 0
293 281 293 319 346 370 388 395 396 406
423 439 439 430 414 393 366 335 299 266
240 218 182 145 118 89 65 48 38 31
24 20 15 10 3 0 0
293 282 296 322 356 379 400 408 409 419
440 453 452 442 424 400 370 335 299 267
239 209 179 147 117 91 66 46 38 31
24 19 16 10 3 0 0
293 286 301 329 367 394 415 422 423 438
458 472 470 456 434 408 375 336 299 267
237 205 178 150 120 90 65 45 36 29
22 18 15 10 3 0 0
293 286 303 333 374 404 426 430 433 450
471 486 484 466 441 407 372 335 294 260
226 198 169 145 118 91 64 42 33 26
20 16 13 9 3 0 0
293 292 308 343 388 418 444 446 449 473
493 507 505 485 455 419 377 336 296 253
221 193 165 143 118 93 65 40 30 23
17 14 11 8 3 0 0
293 296 311 352 398 432 457 460 465 489
513 527 525 503 462 426 374 336 287 245
212 183 158 133 111 88 60 37 28 20
14 11 9 7 2 0 0
293 292 309 348 401 435 462 466 467 495
518 536 536 512 464 422 378 335 281 234
198 173 147 123 99 79 55 31 23 16
11 9 7 5 2 0 0
293 293 309 352 406 444 473 477 477 506
532 549 551 521 474 423 383 327 271 225
187 164 138 113 91 72 51 27 19 12
8 7 5 4 1 0 0
293 292 310 353 413 450 480 487 487 515
541 560 564 532 479 427 382 328 267 216
177 153 125 100 80 62 44 23 15 10
6 5 3 2 0 0 0
293 297 315 359 426 461 494 506 502 524
557 578 584 549 492 439 396 326 257 199
170 150 117 93 70 52 35 16 11 7
5 4 2 1 0 0 0
293 299 316 363 434 470 504 518 513 533
566 591 591 553 497 450 394 324 253 192
165 144 113 83 63 46 30 11 7 5
4 3 1 1 0 0 0
293 302 320 364 442 478 512 531 527 543
577 601 600 562 510 469 407 333 255 189
165 138 107 81 57 42 26 8 5 4
3 2 1 0 0 0 0
293 302 320 369 445 483 518 537 535 548
579 603 602 569 518 480 414 342 262 192
167 139 109 80 57 41 24 6 4 3
2 1 0 0 0 0 0
293 300 318 362 450 486 521 540 538 552
581 600 597 569 518 481 414 341 263 196
164 136 104 79 55 39 24 5 3 2
1 1 0 0 0 0 0
293 309 332 393 455 493 529 539 536 553
570 580 583 550 500 455 413 351 278 214
159 125 92 69 51 36 19 2 1 1
1 0 0 0 0 0 0
293 315 359 430 471 503 521 502 494 506
516 525 520 498 461 424 381 337 278 217
167 119 81 61 44 32 17 2 1 1
1 0 0 0 0 0 0
293 322 384 459 503 537 531 511 503 503
500 487 462 429 400 378 347 307 253 202
156 114 74 49 32 21 12 3 1 1
1 0 0 0 0 0 0
293 322 389 443 497 520 528 528 538 536
517 477 438 401 368 342 313 282 241 190
151 108 74 46 28 20 13 2 2 1
1 1 0 0 0 0 0
