IESNA:LM-63-1995
[TEST]    18664A
[MANUFAC]COOPER LIGHTING - SHAPER                             
[LUMCAT]632-CF1/13                                                                      
[LUMINAIRE]FLUORESCENT WALL MOUNT LUMINAIRE WITH WHITE INTERIOR AND WHITE PLASTIC WRAP LENS                                 
[LAMP]ONE 13 WATT CPFL LAMP. LUMEN RATING = 800 LMS.                                  
[OTHER]SIMULATED REPORT CREATED FROM TEST OF 26 WATT LAMP                              
TILT=NONE
1
       800
1
73
17
1
1
  0.27
  0.38
  0.71
1
1
    0.0000
0 2.5 5 7.5 10 12.5 15 17.5 20 22.5 25 27.5 30 32.5 35 37.5
40 42.5 45 47.5 50 52.5 55 57.5 60 62.5 65 67.5 70 72.5 75
77.5 80 82.5 85 87.5 90 92.5 95 97.5 100 102.5 105 107.5 110
112.5 115 117.5 120 122.5 125 127.5 130 132.5 135 137.5 140
142.5 145 147.5 150 152.5 155 157.5 160 162.5 165 167.5 170
172.5 175 177.5 180
0 22.5 45 67.5 90 112.5 135 157.5 180 202.5 225 247.5
270 292.5 315 337.5 360
      16.6       17.6       20.7       25.4       31.1       36.9       42.9       47.7       51.1       53.4
      54.8       55.8       56.3       56.7       56.8       56.6       56.1       55.6       55.1       54.4
      53.8       53.1       52.3       51.5       50.7       50.2       49.8       49.8       49.9       49.9
      49.9       49.8       49.8       49.7       49.6       49.6       49.6       49.4       49.2       48.9
      48.4       47.8       47.1       46.2       45.2       44.1       43.0       41.8       40.5       39.1
      37.6       36.0       34.4       32.8       31.1       29.4       27.6       25.7       23.7       21.8
      19.8       17.8       15.7       13.6       11.5        9.4        7.0        4.4        2.4        1.1
       0.6        0.5        0.5
      16.6       14.7       15.8       19.7       25.3       31.8       38.9       45.5       51.3       55.4
      58.3       60.4       61.9       62.9       63.7       64.4       64.7       65.0       65.4       65.6
      65.9       66.4       66.9       67.5       67.9       68.5       69.4       70.4       71.3       72.1
      72.8       73.3       73.5       73.7       73.8       73.9       73.8       73.7       73.3       72.8
      72.1       71.3       70.2       69.0       67.4       65.8       64.1       62.3       60.3       58.0
      55.8       53.2       50.7       48.0       45.3       42.6       39.6       36.6       33.5       30.5
      27.3       24.2       21.0       17.8       14.6       11.3        8.0        5.2        3.5        2.1
       0.9        0.5        0.5
      16.6       14.5       16.0       20.7       28.0       35.4       42.5       48.9       54.5       58.9
      62.4       65.2       67.1       68.6       69.7       70.7       71.6       72.6       73.7       74.8
      76.1       77.4       78.7       80.2       82.0       83.9       85.8       87.4       88.6       89.6
      90.4       91.0       91.3       91.6       91.8       92.2       92.3       92.1       91.7       91.1
      90.3       89.5       88.4       86.9       85.1       83.3       81.4       79.2       76.9       74.3
      71.6       68.6       65.5       62.3       59.0       55.6       51.9       48.3       44.4       40.4
      36.3       32.3       28.1       23.9       19.8       15.6       11.6        7.5        4.0        2.1
       1.0        0.6        0.5
      16.6       14.7       16.8       21.7       28.0       34.1       40.4       45.8       50.9       54.9
      57.9       60.5       62.7       64.7       66.5       68.0       69.7       71.3       72.9       74.7
      77.4       79.9       82.6       85.1       87.6       89.7       91.6       93.4       94.7       95.7
      96.6       97.2       97.6       98.0       98.5       98.9       99.0       99.0       98.5       97.9
      97.1       96.1       94.9       93.3       91.3       89.4       87.4       85.1       82.6       79.8
      76.9       73.7       70.5       67.0       63.6       60.1       56.3       52.5       48.4       44.4
      40.1       35.9       31.5       27.2       23.0       18.5       14.2        9.4        5.2        2.7
       1.3        0.6        0.5
      16.6       15.0       17.9       23.3       29.2       34.4       39.6       44.1       48.3       51.3
      53.8       56.1       58.1       60.1       61.8       63.5       65.1       66.8       68.5       70.9
      73.5       76.1       78.8       81.1       83.3       85.1       86.8       88.3       89.5       90.4
      91.2       91.7       91.9       92.4       92.9       93.4       93.6       93.4       92.9       92.3
      91.6       90.7       89.3       87.8       85.9       83.9       82.1       79.9       77.5       74.9
      72.2       69.2       66.2       63.1       59.9       56.7       53.2       49.8       46.1       42.4
      38.5       34.7       30.7       26.8       22.9       18.7       14.4        9.6        5.4        3.0
       1.9        0.6        0.5
      16.6       14.7       16.8       21.7       28.0       34.1       40.4       45.8       50.9       54.9
      57.9       60.5       62.7       64.7       66.5       68.0       69.7       71.3       72.9       74.7
      77.4       79.9       82.6       85.1       87.6       89.7       91.6       93.4       94.7       95.7
      96.6       97.2       97.6       98.0       98.5       98.9       99.0       99.0       98.5       97.9
      97.1       96.1       94.9       93.3       91.3       89.4       87.4       85.1       82.6       79.8
      76.9       73.7       70.5       67.0       63.6       60.1       56.3       52.5       48.4       44.4
      40.1       35.9       31.5       27.2       23.0       18.5       14.2        9.4        5.2        2.7
       1.3        0.6        0.5
      16.6       14.5       16.0       20.7       28.0       35.4       42.5       48.9       54.5       58.9
      62.4       65.2       67.1       68.6       69.7       70.7       71.6       72.6       73.7       74.8
      76.1       77.4       78.7       80.2       82.0       83.9       85.8       87.4       88.6       89.6
      90.4       91.0       91.3       91.6       91.8       92.2       92.3       92.1       91.7       91.1
      90.3       89.5       88.4       86.9       85.1       83.3       81.4       79.2       76.9       74.3
      71.6       68.6       65.5       62.3       59.0       55.6       51.9       48.3       44.4       40.4
      36.3       32.3       28.1       23.9       19.8       15.6       11.6        7.5        4.0        2.1
       1.0        0.6        0.5
      16.6       14.7       15.8       19.7       25.3       31.8       38.9       45.5       51.3       55.4
      58.3       60.4       61.9       62.9       63.7       64.4       64.7       65.0       65.4       65.6
      65.9       66.4       66.9       67.5       67.9       68.5       69.4       70.4       71.3       72.1
      72.8       73.3       73.5       73.7       73.8       73.9       73.8       73.7       73.3       72.8
      72.1       71.3       70.2       69.0       67.4       65.8       64.1       62.3       60.3       58.0
      55.8       53.2       50.7       48.0       45.3       42.6       39.6       36.6       33.5       30.5
      27.3       24.2       21.0       17.8       14.6       11.3        8.0        5.2        3.5        2.1
       0.9        0.5        0.5
      16.6       17.6       20.7       25.4       31.1       36.9       42.9       47.7       51.1       53.4
      54.8       55.8       56.3       56.7       56.8       56.6       56.1       55.6       55.1       54.4
      53.8       53.1       52.3       51.5       50.7       50.2       49.8       49.8       49.9       49.9
      49.9       49.8       49.8       49.7       49.6       49.6       49.6       49.4       49.2       48.9
      48.4       47.8       47.1       46.2       45.2       44.1       43.0       41.8       40.5       39.1
      37.6       36.0       34.4       32.8       31.1       29.4       27.6       25.7       23.7       21.8
      19.8       17.8       15.7       13.6       11.5        9.4        7.0        4.4        2.4        1.1
       0.6        0.5        0.5
      16.6       20.9       26.3       32.3       38.9       45.5       52.3       57.9       62.3       65.2
      66.9       67.8       68.1       67.7       66.7       65.3       63.3       61.2       58.9       56.7
      54.4       52.0       49.7       47.4       45.1       43.2       41.5       40.2       39.5       39.2
      38.8       38.6       38.3       38.1       37.9       37.7       37.7       37.6       37.4       37.1
      36.7       36.2       35.5       34.8       34.0       33.2       32.3       31.3       30.3       29.2
      28.0       26.8       25.6       24.3       23.1       21.7       20.3       18.9       17.3       15.8
      14.2       12.7       11.1        9.5        7.9        6.2        4.5        2.5        0.9        0.5
       0.5        0.5        0.5
      16.6       20.8       26.3       32.3       38.3       43.8       49.1       53.6       57.5       60.5
      62.6       63.8       64.3       64.2       63.7       62.8       61.5       59.7       56.6       52.9
      49.3       45.8       42.2       38.9       35.9       33.3       31.0       29.1       27.9       27.3
      27.0       26.7       26.3       26.1       25.8       25.6       25.6       25.5       25.3       25.1
      24.9       24.5       24.1       23.6       23.0       22.5       21.9       21.2       20.5       19.7
      18.9       18.0       17.2       16.3       15.3       14.4       13.4       12.3       11.2       10.1
       8.9        7.8        6.5        5.2        3.8        2.1        0.8        0.5        0.5        0.5
       0.5        0.5        0.5
      16.6       20.1       24.8       29.5       33.9       37.6       40.8       43.4       45.6       47.4
      48.7       49.6       49.8       49.7       49.1       46.8       43.4       39.7       36.3       32.9
      29.6       26.7       23.8       21.3       18.9       16.8       15.2       14.2       13.5       12.9
      12.4       12.0       11.6       11.3       11.0       10.8       10.8       10.7       10.6       10.5
      10.3       10.2        9.9        9.7        9.4        9.1        8.8        8.4        8.1        7.7
       7.3        6.9        6.5        6.0        5.6        5.1        4.6        4.1        3.5        2.9
       2.3        1.7        1.1        0.8        0.5        0.5        0.5        0.5        0.5        0.5
       0.5        0.5        0.5
      16.6       18.9       22.8       26.5       29.8       32.3       34.3       36.0       37.4       38.4
      38.9       39.0       38.7       37.9       36.2       33.1       29.9       26.6       23.4       20.4
      17.4       14.8       12.4       10.2        8.2        6.5        5.1        4.2        3.4        2.7
       2.2        1.7        1.3        0.9        0.7        0.5        0.5        0.5        0.5        0.5
       0.5        0.5        0.5        0.5        0.5        0.5        0.5        0.5        0.5        0.5
       0.5        0.5        0.5        0.5        0.5        0.5        0.5        0.5        0.5        0.5
       0.5        0.5        0.5        0.5        0.5        0.5        0.5        0.5        0.5        0.5
       0.5        0.5        0.5
      16.6       20.1       24.8       29.5       33.9       37.6       40.8       43.4       45.6       47.4
      48.7       49.6       49.8       49.7       49.1       46.8       43.4       39.7       36.3       32.9
      29.6       26.7       23.8       21.3       18.9       16.8       15.2       14.2       13.5       12.9
      12.4       12.0       11.6       11.3       11.0       10.8       10.8       10.7       10.6       10.5
      10.3       10.2        9.9        9.7        9.4        9.1        8.8        8.4        8.1        7.7
       7.3        6.9        6.5        6.0        5.6        5.1        4.6        4.1        3.5        2.9
       2.3        1.7        1.1        0.8        0.5        0.5        0.5        0.5        0.5        0.5
       0.5        0.5        0.5
      16.6       20.8       26.3       32.3       38.3       43.8       49.1       53.6       57.5       60.5
      62.6       63.8       64.3       64.2       63.7       62.8       61.5       59.7       56.6       52.9
      49.3       45.8       42.2       38.9       35.9       33.3       31.0       29.1       27.9       27.3
      27.0       26.7       26.3       26.1       25.8       25.6       25.6       25.5       25.3       25.1
      24.9       24.5       24.1       23.6       23.0       22.5       21.9       21.2       20.5       19.7
      18.9       18.0       17.2       16.3       15.3       14.4       13.4       12.3       11.2       10.1
       8.9        7.8        6.5        5.2        3.8        2.1        0.8        0.5        0.5        0.5
       0.5        0.5        0.5
      16.6       20.9       26.3       32.3       38.9       45.5       52.3       57.9       62.3       65.2
      66.9       67.8       68.1       67.7       66.7       65.3       63.3       61.2       58.9       56.7
      54.4       52.0       49.7       47.4       45.1       43.2       41.5       40.2       39.5       39.2
      38.8       38.6       38.3       38.1       37.9       37.7       37.7       37.6       37.4       37.1
      36.7       36.2       35.5       34.8       34.0       33.2       32.3       31.3       30.3       29.2
      28.0       26.8       25.6       24.3       23.1       21.7       20.3       18.9       17.3       15.8
      14.2       12.7       11.1        9.5        7.9        6.2        4.5        2.5        0.9        0.5
       0.5        0.5        0.5
      16.6       17.6       20.7       25.4       31.1       36.9       42.9       47.7       51.1       53.4
      54.8       55.8       56.3       56.7       56.8       56.6       56.1       55.6       55.1       54.4
      53.8       53.1       52.3       51.5       50.7       50.2       49.8       49.8       49.9       49.9
      49.9       49.8       49.8       49.7       49.6       49.6       49.6       49.4       49.2       48.9
      48.4       47.8       47.1       46.2       45.2       44.1       43.0       41.8       40.5       39.1
      37.6       36.0       34.4       32.8       31.1       29.4       27.6       25.7       23.7       21.8
      19.8       17.8       15.7       13.6       11.5        9.4        7.0        4.4        2.4        1.1
       0.6        0.5        0.5
