IESNA:LM-63-1995
[TEST]     18664
[MANUFAC]COOPER LIGHTING - SHAPER                             
[LUMCAT]632-CF1/26                                                                      
[LUMINAIRE]FLUORESCENT WALL MOUNT LUMINAIRE WITH WHITE INTERIOR AND WHITE PLASTIC WRAP LENS                                 
[LAMP]ONE SYLVANIA 26 WATT CPFL LAMP                                                  
[LAMPCAT]CF26DD/E830. LUMEN RATING = 1800 LMS.                                           
[OTHER]ONE UNIVERSAL C2642UNVSE BALLAST OPERATING AT 120 VAC AND 27 WATTS              
TILT=NONE
1
      1800
1
73
17
1
1
  0.27
  0.38
  0.71
1
1
   27.0000
0 2.5 5 7.5 10 12.5 15 17.5 20 22.5 25 27.5 30 32.5 35 37.5
40 42.5 45 47.5 50 52.5 55 57.5 60 62.5 65 67.5 70 72.5 75
77.5 80 82.5 85 87.5 90 92.5 95 97.5 100 102.5 105 107.5 110
112.5 115 117.5 120 122.5 125 127.5 130 132.5 135 137.5 140
142.5 145 147.5 150 152.5 155 157.5 160 162.5 165 167.5 170
172.5 175 177.5 180
0 22.5 45 67.5 90 112.5 135 157.5 180 202.5 225 247.5
270 292.5 315 337.5 360
      36.6       39.0       45.9       56.6       69.4       82.4       95.9      106.7      114.5      119.4
     122.7      124.9      126.2      126.9      127.1      126.6      125.7      124.5      123.3      121.8
     120.3      118.8      117.1      115.3      113.5      112.2      111.5      111.4      111.6      111.6
     111.6      111.5      111.4      111.2      111.0      110.9      110.9      110.6      110.1      109.3
     108.2      107.0      105.3      103.3      101.0       98.7       96.2       93.4       90.4       87.3
      84.0       80.3       76.8       73.1       69.3       65.5       61.4       57.3       52.8       48.5
      43.9       39.4       34.6       30.0       25.4       20.4       15.1        9.3        4.8        1.8
       0.6        0.5        0.5
      36.6       32.5       35.0       43.6       56.4       71.0       86.9      101.8      114.7      124.0
     130.6      135.4      138.5      140.8      142.7      144.2      145.0      145.7      146.6      147.0
     147.8      148.7      149.9      151.2      152.2      153.4      155.6      157.9      159.9      161.6
     163.1      164.2      164.8      165.3      165.3      165.7      165.5      165.3      164.3      163.1
     161.6      159.7      157.3      154.6      151.0      147.3      143.7      139.5      134.9      130.0
     124.8      119.2      113.4      107.4      101.3       95.1       88.4       81.8       74.8       67.9
      60.8       53.8       46.6       39.4       32.2       24.7       17.3       11.1        7.2        4.0
       1.5        0.5        0.5
      36.6       32.1       35.4       46.1       62.3       79.0       95.1      109.4      122.1      132.0
     139.8      146.0      150.3      153.8      156.2      158.4      160.4      162.7      165.1      167.7
     170.6      173.6      176.5      179.8      184.0      188.2      192.4      196.0      198.7      201.0
     202.9      204.1      204.9      205.4      206.0      206.7      207.0      206.6      205.7      204.4
     202.6      200.7      198.2      194.8      190.8      186.7      182.5      177.6      172.4      166.6
     160.5      153.7      146.8      139.5      132.1      124.5      116.2      108.0       99.2       90.4
      81.1       72.0       62.5       53.1       44.0       34.5       25.5       16.3        8.4        4.1
       1.6        0.8        0.5
      36.6       32.4       37.1       48.2       62.3       76.0       90.2      102.4      113.9      122.9
     129.8      135.6      140.4      144.9      148.9      152.4      156.2      159.9      163.5      167.5
     173.5      179.2      185.3      190.9      196.4      201.3      205.5      209.4      212.4      214.7
     216.6      218.1      218.9      220.0      221.1      221.9      222.1      222.1      221.1      219.6
     217.9      215.7      212.9      209.3      204.9      200.5      196.0      190.8      185.1      178.9
     172.4      165.3      158.0      150.2      142.5      134.7      126.0      117.5      108.2       99.2
      89.5       80.0       70.3       60.6       51.1       41.1       31.3       20.5       11.0        5.4
       2.2        0.8        0.5
      36.6       33.1       39.8       51.9       65.1       76.8       88.4       98.6      108.0      114.8
     120.4      125.6      130.2      134.6      138.4      142.3      145.9      149.7      153.5      158.8
     164.7      170.6      176.6      181.9      186.7      190.8      194.6      198.1      200.7      202.9
     204.5      205.6      206.1      207.2      208.4      209.5      209.9      209.4      208.5      207.1
     205.5      203.4      200.4      196.9      192.6      188.2      184.1      179.2      173.8      167.9
     161.8      155.1      148.4      141.3      134.2      126.9      119.2      111.5      103.0       94.8
      86.1       77.5       68.5       59.7       50.8       41.4       31.7       21.0       11.6        6.2
       3.6        0.6        0.5
      36.6       32.4       37.1       48.2       62.3       76.0       90.2      102.4      113.9      122.9
     129.8      135.6      140.4      144.9      148.9      152.4      156.2      159.9      163.5      167.5
     173.5      179.2      185.3      190.9      196.4      201.3      205.5      209.4      212.4      214.7
     216.6      218.1      218.9      220.0      221.1      221.9      222.1      222.1      221.1      219.6
     217.9      215.7      212.9      209.3      204.9      200.5      196.0      190.8      185.1      178.9
     172.4      165.3      158.0      150.2      142.5      134.7      126.0      117.5      108.2       99.2
      89.5       80.0       70.3       60.6       51.1       41.1       31.3       20.5       11.0        5.4
       2.2        0.8        0.5
      36.6       32.1       35.4       46.1       62.3       79.0       95.1      109.4      122.1      132.0
     139.8      146.0      150.3      153.8      156.2      158.4      160.4      162.7      165.1      167.7
     170.6      173.6      176.5      179.8      184.0      188.2      192.4      196.0      198.7      201.0
     202.9      204.1      204.9      205.4      206.0      206.7      207.0      206.6      205.7      204.4
     202.6      200.7      198.2      194.8      190.8      186.7      182.5      177.6      172.4      166.6
     160.5      153.7      146.8      139.5      132.1      124.5      116.2      108.0       99.2       90.4
      81.1       72.0       62.5       53.1       44.0       34.5       25.5       16.3        8.4        4.1
       1.6        0.8        0.5
      36.6       32.5       35.0       43.6       56.4       71.0       86.9      101.8      114.7      124.0
     130.6      135.4      138.5      140.8      142.7      144.2      145.0      145.7      146.6      147.0
     147.8      148.7      149.9      151.2      152.2      153.4      155.6      157.9      159.9      161.6
     163.1      164.2      164.8      165.3      165.3      165.7      165.5      165.3      164.3      163.1
     161.6      159.7      157.3      154.6      151.0      147.3      143.7      139.5      134.9      130.0
     124.8      119.2      113.4      107.4      101.3       95.1       88.4       81.8       74.8       67.9
      60.8       53.8       46.6       39.4       32.2       24.7       17.3       11.1        7.2        4.0
       1.5        0.5        0.5
      36.6       39.0       45.9       56.6       69.4       82.4       95.9      106.7      114.5      119.4
     122.7      124.9      126.2      126.9      127.1      126.6      125.7      124.5      123.3      121.8
     120.3      118.8      117.1      115.3      113.5      112.2      111.5      111.4      111.6      111.6
     111.6      111.5      111.4      111.2      111.0      110.9      110.9      110.6      110.1      109.3
     108.2      107.0      105.3      103.3      101.0       98.7       96.2       93.4       90.4       87.3
      84.0       80.3       76.8       73.1       69.3       65.5       61.4       57.3       52.8       48.5
      43.9       39.4       34.6       30.0       25.4       20.4       15.1        9.3        4.8        1.8
       0.6        0.5        0.5
      36.6       46.4       58.5       72.1       86.9      101.7      117.0      129.7      139.7      146.0
     149.9      152.0      152.5      151.6      149.5      146.2      141.9      137.1      132.0      126.9
     121.7      116.4      111.2      106.1      100.9       96.5       92.8       89.8       88.3       87.5
      86.8       86.2       85.7       85.1       84.7       84.3       84.3       84.0       83.4       82.8
      81.9       80.7       79.3       77.7       76.0       74.1       72.1       69.9       67.6       65.1
      62.4       59.7       57.0       54.2       51.3       48.2       45.0       41.9       38.3       34.9
      31.4       27.9       24.3       20.8       17.2       13.4        9.4        5.0        1.4        0.5
       0.5        0.5        0.5
      36.6       46.1       58.6       72.0       85.7       97.9      109.9      120.0      128.8      135.4
     140.2      143.0      144.1      143.9      142.7      140.7      137.8      133.8      126.6      118.4
     110.3      102.4       94.3       87.0       80.2       74.4       69.1       64.9       62.0       60.8
      60.1       59.4       58.6       58.0       57.5       57.0       57.0       56.7       56.4       55.9
      55.4       54.5       53.5       52.4       51.2       49.9       48.6       47.1       45.5       43.8
      41.9       39.9       38.1       36.0       33.9       31.7       29.4       27.1       24.5       22.2
      19.5       17.0       14.1       11.2        7.8        4.1        1.3        0.6        0.5        0.5
       0.5        0.5        0.5
      36.6       44.5       55.2       65.8       75.6       84.0       91.3       97.0      102.0      106.0
     109.0      110.9      111.5      111.3      109.9      104.7       97.0       88.7       81.0       73.4
      66.0       59.4       53.0       47.3       41.9       37.3       33.6       31.4       29.7       28.3
      27.3       26.3       25.5       24.8       24.1       23.7       23.7       23.5       23.3       23.0
      22.6       22.2       21.7       21.1       20.5       19.9       19.1       18.4       17.6       16.7
      15.9       14.8       13.9       12.9       12.0       10.9        9.7        8.5        7.2        5.9
       4.4        3.2        1.9        1.1        0.6        0.5        0.5        0.5        0.5        0.5
       0.5        0.5        0.5
      36.6       41.9       50.7       58.9       66.4       72.2       76.6       80.3       83.5       85.7
      86.9       87.1       86.4       84.7       80.7       73.8       66.7       59.1       52.0       45.2
      38.6       32.8       27.3       22.3       17.7       14.0       10.9        8.7        7.0        5.5
       4.2        3.2        2.3        1.5        0.9        0.5        0.5        0.5        0.5        0.5
       0.5        0.5        0.5        0.5        0.5        0.5        0.5        0.5        0.5        0.5
       0.5        0.5        0.5        0.5        0.5        0.5        0.5        0.5        0.5        0.5
       0.5        0.5        0.5        0.5        0.5        0.5        0.5        0.5        0.5        0.5
       0.5        0.5        0.5
      36.6       44.5       55.2       65.8       75.6       84.0       91.3       97.0      102.0      106.0
     109.0      110.9      111.5      111.3      109.9      104.7       97.0       88.7       81.0       73.4
      66.0       59.4       53.0       47.3       41.9       37.3       33.6       31.4       29.7       28.3
      27.3       26.3       25.5       24.8       24.1       23.7       23.7       23.5       23.3       23.0
      22.6       22.2       21.7       21.1       20.5       19.9       19.1       18.4       17.6       16.7
      15.9       14.8       13.9       12.9       12.0       10.9        9.7        8.5        7.2        5.9
       4.4        3.2        1.9        1.1        0.6        0.5        0.5        0.5        0.5        0.5
       0.5        0.5        0.5
      36.6       46.1       58.6       72.0       85.7       97.9      109.9      120.0      128.8      135.4
     140.2      143.0      144.1      143.9      142.7      140.7      137.8      133.8      126.6      118.4
     110.3      102.4       94.3       87.0       80.2       74.4       69.1       64.9       62.0       60.8
      60.1       59.4       58.6       58.0       57.5       57.0       57.0       56.7       56.4       55.9
      55.4       54.5       53.5       52.4       51.2       49.9       48.6       47.1       45.5       43.8
      41.9       39.9       38.1       36.0       33.9       31.7       29.4       27.1       24.5       22.2
      19.5       17.0       14.1       11.2        7.8        4.1        1.3        0.6        0.5        0.5
       0.5        0.5        0.5
      36.6       46.4       58.5       72.1       86.9      101.7      117.0      129.7      139.7      146.0
     149.9      152.0      152.5      151.6      149.5      146.2      141.9      137.1      132.0      126.9
     121.7      116.4      111.2      106.1      100.9       96.5       92.8       89.8       88.3       87.5
      86.8       86.2       85.7       85.1       84.7       84.3       84.3       84.0       83.4       82.8
      81.9       80.7       79.3       77.7       76.0       74.1       72.1       69.9       67.6       65.1
      62.4       59.7       57.0       54.2       51.3       48.2       45.0       41.9       38.3       34.9
      31.4       27.9       24.3       20.8       17.2       13.4        9.4        5.0        1.4        0.5
       0.5        0.5        0.5
      36.6       39.0       45.9       56.6       69.4       82.4       95.9      106.7      114.5      119.4
     122.7      124.9      126.2      126.9      127.1      126.6      125.7      124.5      123.3      121.8
     120.3      118.8      117.1      115.3      113.5      112.2      111.5      111.4      111.6      111.6
     111.6      111.5      111.4      111.2      111.0      110.9      110.9      110.6      110.1      109.3
     108.2      107.0      105.3      103.3      101.0       98.7       96.2       93.4       90.4       87.3
      84.0       80.3       76.8       73.1       69.3       65.5       61.4       57.3       52.8       48.5
      43.9       39.4       34.6       30.0       25.4       20.4       15.1        9.3        4.8        1.8
       0.6        0.5        0.5
