IESNA:LM-63-1995
[TEST]    19155A
[MANUFAC]COOPER LIGHTING - SHAPER                                
[LUMCAT]693-S-CF2/13                                                                    
[LUMINAIRE]INTERIOR WALL MOUNT LUMINAIRE WITH WHITE INTERIOR AND WHITE PLASTIC LENS                                      
[LAMP]TWO 13 WATT CPFL LAMPS. LUMEN RATING = 1800 LMS.                                
[OTHER]SIMULATED REPORT FROM TEST WITH 2 - 26 WATT LAMPS                               
TILT=NONE
1
      1800
1
73
17
1
1
  0.00
  0.00
  0.00
1
1
    0.0000
0 2.5 5 7.5 10 12.5 15 17.5 20 22.5 25 27.5 30 32.5 35 37.5
40 42.5 45 47.5 50 52.5 55 57.5 60 62.5 65 67.5 70 72.5 75
77.5 80 82.5 85 87.5 90 92.5 95 97.5 100 102.5 105 107.5 110
112.5 115 117.5 120 122.5 125 127.5 130 132.5 135 137.5 140
142.5 145 147.5 150 152.5 155 157.5 160 162.5 165 167.5 170
172.5 175 177.5 180
0 22.5 45 67.5 90 112.5 135 157.5 180 202.5 225 247.5
270 292.5 315 337.5 360
      80.6       78.0       77.8       77.5       76.7       75.8       74.9       74.1       72.7       70.9
      69.7       68.1       66.2       63.9       61.8       59.9       57.5       55.0       52.6       50.1
      46.9       44.4       41.8       39.3       36.1       33.5       30.9       28.6       26.2       23.8
      21.7       19.3       17.7       15.9       14.7       12.8       11.7       14.7       25.5       39.2
      54.7       67.2       82.6       99.5      115.1      130.9      146.4      160.2      171.2      181.5
     190.8      200.3      208.9      217.3      224.9      231.8      238.0      244.1      249.7      254.7
     259.3      262.6      265.3      267.9      269.0      270.0      270.5      270.3      269.7      269.1
     268.2      267.4      264.6
      80.6       80.9       81.4       82.0       82.4       82.4       82.4       82.0       81.7       81.1
      80.2       79.3       78.1       77.2       75.7       73.9       72.3       70.3       67.7       65.6
      63.9       61.3       58.8       56.1       53.3       50.6       47.7       45.0       41.8       39.5
      36.8       33.8       31.4       29.8       27.9       25.3       21.9       21.4       24.7       31.6
      41.0       49.2       56.7       66.4       82.1       99.5      117.9      141.4      162.4      181.6
     194.9      205.4      215.1      225.1      234.1      242.2      250.0      256.1      261.3      265.6
     269.9      272.4      275.1      276.8      278.2      279.0      279.4      279.2      278.2      275.4
     272.5      269.9      264.6
      80.6       82.1       83.9       85.1       85.7       86.6       87.5       88.0       87.8       87.8
      87.5       87.8       87.4       86.8       86.0       84.5       83.0       82.0       80.4       78.7
      76.8       74.7       71.7       69.3       67.3       64.6       61.6       58.9       56.1       53.7
      50.9       47.9       45.2       43.2       41.1       37.8       33.4       30.1       30.6       34.7
      41.9       48.5       55.9       64.3       75.7       90.7      106.5      127.1      148.4      169.3
     187.3      202.1      214.2      223.7      232.3      240.3      247.1      252.7      257.9      262.0
     265.5      269.1      271.3      273.0      273.6      274.2      274.8      274.8      273.9      271.6
     268.9      266.4      264.6
      80.6       83.7       85.6       87.2       88.6       89.7       91.3       92.1       92.6       93.3
      93.5       94.2       94.4       94.4       94.0       93.2       92.0       91.3       89.8       88.3
      87.1       85.3       83.2       80.9       78.1       75.7       73.7       71.1       68.4       65.1
      62.4       59.7       57.1       54.3       52.3       49.4       44.0       38.3       38.8       43.4
      51.8       61.7       73.5       85.1       99.2      114.7      130.2      147.2      165.3      184.6
     202.5      218.0      230.7      242.0      251.6      259.9      266.9      273.0      277.8      281.2
     283.8      284.9      284.9      283.3      282.4      280.8      279.2      278.1      276.0      272.5
     269.1      266.4      264.6
      80.6       84.4       86.2       88.1       89.8       91.1       92.8       93.8       94.6       95.6
      96.2       96.5       96.9       96.9       96.6       96.2       95.4       94.2       93.4       92.1
      90.7       88.9       86.5       84.9       82.5       80.0       78.0       75.6       72.9       70.1
      67.5       64.0       61.6       59.3       56.8       54.0       48.5       39.2       38.8       43.4
      52.1       62.4       76.8       93.8      113.1      131.0      147.6      164.6      179.7      194.5
     207.4      218.9      229.1      238.5      246.7      253.9      260.4      266.5      271.1      275.1
     277.3      279.4      280.6      281.2      280.8      278.2      274.2      270.5      266.5      262.8
     259.5      257.6      264.6
      80.6       83.7       85.6       87.2       88.6       89.7       91.3       92.1       92.6       93.3
      93.5       94.2       94.4       94.4       94.0       93.2       92.0       91.3       89.8       88.3
      87.1       85.3       83.2       80.9       78.1       75.7       73.7       71.1       68.4       65.1
      62.4       59.7       57.1       54.3       52.3       49.4       44.0       38.3       38.8       43.4
      51.8       61.7       73.5       85.1       99.2      114.7      130.2      147.2      165.3      184.6
     202.5      218.0      230.7      242.0      251.6      259.9      266.9      273.0      277.8      281.2
     283.8      284.9      284.9      283.3      282.4      280.8      279.2      278.1      276.0      272.5
     269.1      266.4      264.6
      80.6       82.1       83.9       85.1       85.7       86.6       87.5       88.0       87.8       87.8
      87.5       87.8       87.4       86.8       86.0       84.5       83.0       82.0       80.4       78.7
      76.8       74.7       71.7       69.3       67.3       64.6       61.6       58.9       56.1       53.7
      50.9       47.9       45.2       43.2       41.1       37.8       33.4       30.1       30.6       34.7
      41.9       48.5       55.9       64.3       75.7       90.7      106.5      127.1      148.4      169.3
     187.3      202.1      214.2      223.7      232.3      240.3      247.1      252.7      257.9      262.0
     265.5      269.1      271.3      273.0      273.6      274.2      274.8      274.8      273.9      271.6
     268.9      266.4      264.6
      80.6       80.9       81.4       82.0       82.4       82.4       82.4       82.0       81.7       81.1
      80.2       79.3       78.1       77.2       75.7       73.9       72.3       70.3       67.7       65.6
      63.9       61.3       58.8       56.1       53.3       50.6       47.7       45.0       41.8       39.5
      36.8       33.8       31.4       29.8       27.9       25.3       21.9       21.4       24.7       31.6
      41.0       49.2       56.7       66.4       82.1       99.5      117.9      141.4      162.4      181.6
     194.9      205.4      215.1      225.1      234.1      242.2      250.0      256.1      261.3      265.6
     269.9      272.4      275.1      276.8      278.2      279.0      279.4      279.2      278.2      275.4
     272.5      269.9      264.6
      80.6       78.0       77.8       77.5       76.7       75.8       74.9       74.1       72.7       70.9
      69.7       68.1       66.2       63.9       61.8       59.9       57.5       55.0       52.6       50.1
      46.9       44.4       41.8       39.3       36.1       33.5       30.9       28.6       26.2       23.8
      21.7       19.3       17.7       15.9       14.7       12.8       11.7       14.7       25.5       39.2
      54.7       67.2       82.6       99.5      115.1      130.9      146.4      160.2      171.2      181.5
     190.8      200.3      208.9      217.3      224.9      231.8      238.0      244.1      249.7      254.7
     259.3      262.6      265.3      267.9      269.0      270.0      270.5      270.3      269.7      269.1
     268.2      267.4      264.6
      80.6       78.4       77.2       76.1       74.7       73.2       71.6       69.9       68.0       66.3
      64.1       62.0       59.9       57.2       54.7       52.0       49.2       46.4       43.5       40.6
      37.6       34.7       31.4       29.1       26.0       24.1       21.4       19.5       17.5       15.6
      14.1       12.2       11.2        9.8        9.0        8.1        9.3       13.6       20.8       29.9
      41.9       59.1       79.6       99.5      116.7      131.9      145.6      159.0      171.2      182.2
     192.2      201.3      209.4      216.2      222.5      227.7      231.6      235.5      239.5      243.1
     247.5      251.8      256.6      259.6      262.7      265.2      266.5      266.1      265.5      265.2
     265.8      266.5      264.6
      80.6       79.7       77.8       76.0       74.2       72.8       70.8       68.8       66.8       64.3
      62.7       59.7       57.2       54.4       51.3       48.0       44.8       41.5       38.2       34.9
      32.2       29.4       26.6       24.2       21.7       19.6       17.4       16.0       14.7       13.3
      12.2       11.0       10.5        9.4        8.9        8.4       11.2       14.7       23.2       32.8
      43.1       55.2       72.0       88.4      104.9      120.1      134.5      149.9      162.6      175.6
     187.4      198.2      207.7      215.6      222.7      229.1      234.4      239.6      243.9      247.6
     251.5      254.2      256.8      259.5      262.1      264.4      266.4      265.7      264.8      262.8
     262.0      261.5      264.6
      80.6       80.5       78.9       77.1       74.8       73.0       70.6       68.5       66.0       63.6
      61.1       57.8       55.1       51.9       48.3       45.2       41.8       38.2       35.0       31.5
      28.0       25.3       23.1       20.6       18.9       17.0       15.9       14.6       13.5       12.7
      12.1       11.2       10.9       10.3        9.8        9.4       12.4       16.5       27.8       40.0
      55.5       70.3       84.5      101.8      117.1      130.9      144.8      158.3      170.7      182.4
     193.3      204.1      213.4      221.9      229.1      235.8      241.9      246.4      250.9      255.4
     258.8      262.3      265.1      267.9      270.0      272.5      274.7      274.4      273.2      270.4
     268.4      267.0      264.6
      80.6       80.6       78.8       76.5       75.1       73.2       70.9       68.5       66.0       63.6
      60.7       57.6       54.5       51.5       48.3       44.7       41.1       37.4       33.9       30.6
      27.1       24.3       21.9       19.6       18.2       16.5       15.4       14.2       13.2       12.7
      12.0       11.8       11.0       11.0       10.5       10.6       14.1       17.8       31.3       46.3
      62.9       80.8       97.0      114.6      132.4      144.5      156.4      168.4      179.6      190.4
     199.8      209.8      218.0      225.4      231.6      237.1      242.5      246.5      250.6      253.7
     257.5      260.7      263.6      265.3      266.9      267.3      267.2      266.9      266.5      264.8
     262.8      260.7      264.6
      80.6       80.5       78.9       77.1       74.8       73.0       70.6       68.5       66.0       63.6
      61.1       57.8       55.1       51.9       48.3       45.2       41.8       38.2       35.0       31.5
      28.0       25.3       23.1       20.6       18.9       17.0       15.9       14.6       13.5       12.7
      12.1       11.2       10.9       10.3        9.8        9.4       12.4       16.5       27.8       40.0
      55.5       70.3       84.5      101.8      117.1      130.9      144.8      158.3      170.7      182.4
     193.3      204.1      213.4      221.9      229.1      235.8      241.9      246.4      250.9      255.4
     258.8      262.3      265.1      267.9      270.0      272.5      274.7      274.4      273.2      270.4
     268.4      267.0      264.6
      80.6       79.7       77.8       76.0       74.2       72.8       70.8       68.8       66.8       64.3
      62.7       59.7       57.2       54.4       51.3       48.0       44.8       41.5       38.2       34.9
      32.2       29.4       26.6       24.2       21.7       19.6       17.4       16.0       14.7       13.3
      12.2       11.0       10.5        9.4        8.9        8.4       11.2       14.7       23.2       32.8
      43.1       55.2       72.0       88.4      104.9      120.1      134.5      149.9      162.6      175.6
     187.4      198.2      207.7      215.6      222.7      229.1      234.4      239.6      243.9      247.6
     251.5      254.2      256.8      259.5      262.1      264.4      266.4      265.7      264.8      262.8
     262.0      261.5      264.6
      80.6       78.4       77.2       76.1       74.7       73.2       71.6       69.9       68.0       66.3
      64.1       62.0       59.9       57.2       54.7       52.0       49.2       46.4       43.5       40.6
      37.6       34.7       31.4       29.1       26.0       24.1       21.4       19.5       17.5       15.6
      14.1       12.2       11.2        9.8        9.0        8.1        9.3       13.6       20.8       29.9
      41.9       59.1       79.6       99.5      116.7      131.9      145.6      159.0      171.2      182.2
     192.2      201.3      209.4      216.2      222.5      227.7      231.6      235.5      239.5      243.1
     247.5      251.8      256.6      259.6      262.7      265.2      266.5      266.1      265.5      265.2
     265.8      266.5      264.6
      80.6       78.0       77.8       77.5       76.7       75.8       74.9       74.1       72.7       70.9
      69.7       68.1       66.2       63.9       61.8       59.9       57.5       55.0       52.6       50.1
      46.9       44.4       41.8       39.3       36.1       33.5       30.9       28.6       26.2       23.8
      21.7       19.3       17.7       15.9       14.7       12.8       11.7       14.7       25.5       39.2
      54.7       67.2       82.6       99.5      115.1      130.9      146.4      160.2      171.2      181.5
     190.8      200.3      208.9      217.3      224.9      231.8      238.0      244.1      249.7      254.7
     259.3      262.6      265.3      267.9      269.0      270.0      270.5      270.3      269.7      269.1
     268.2      267.4      264.6
