IESNA:LM-63-1995
[TEST]     19170
[MANUFAC]COOPER LIGHTING - SHAPER                                 
[LUMCAT]691-CF2/26                                                                      
[LUMINAIRE]INTERIOR WALL MOUNT LUMINAIRE WITH WHITE INTERIOR AND WHITE PLASTIC LENS                                      
[LAMP]TWO SYLVANIA 26 WATT CPFL LAMPS                                                 
[LAMPCAT]CF26DD/E/841. LUMEN RATING = 3600 LMS.                                          
[OTHER]ONE UNIVERSAL C2642UNVSE BALLAST OPERATING AT 120 VAC AND 48 WATTS              
TILT=NONE
1
      3600
1
73
17
1
1
  0.08
  1.17
  0.29
1
1
   48.0000
0 2.5 5 7.5 10 12.5 15 17.5 20 22.5 25 27.5 30 32.5 35 37.5
40 42.5 45 47.5 50 52.5 55 57.5 60 62.5 65 67.5 70 72.5 75
77.5 80 82.5 85 87.5 90 92.5 95 97.5 100 102.5 105 107.5 110
112.5 115 117.5 120 122.5 125 127.5 130 132.5 135 137.5 140
142.5 145 147.5 150 152.5 155 157.5 160 162.5 165 167.5 170
172.5 175 177.5 180
0 22.5 45 67.5 90 112.5 135 157.5 180 202.5 225 247.5
270 292.5 315 337.5 360
      33.5       32.2       32.3       32.3       32.4       32.5       32.6       32.6       32.6       32.7
      32.7       32.8       32.8       33.1       33.0       33.1       33.2       33.1       33.3       33.2
      33.3       33.2       33.3       33.3       33.4       33.4       33.4       33.4       33.4       33.3
      33.3       33.1       33.0       32.9       32.7       32.4       32.1       31.8       31.4       31.1
      30.6       30.2       29.7       29.2       28.7       28.2       27.7       27.1       26.5       25.9
      25.4       24.8       24.2       23.6       23.0       22.5       22.0       21.4       20.8       20.4
      19.9       19.4       18.9       18.4       18.1       17.8       17.4       17.1       16.9       16.8
      16.6       16.3       16.2
      33.5       32.1       31.3       30.7       30.1       29.4       29.0       28.4       27.7       27.0
      26.4       25.5       24.9       24.1       23.5       22.7       22.1       21.3       20.8       20.2
      19.5       19.0       18.3       17.9       17.4       16.8       16.5       16.1       15.6       15.1
      14.8       14.3       14.1       13.9       13.4       13.4       13.1        8.2        8.2        8.2
       8.3        8.4        8.5        8.7        8.8        8.9        9.3        9.4        9.6       10.0
      10.2       10.5       10.7       11.1       11.5       11.8       12.0       12.4       12.6       12.9
      13.3       13.6       14.0       14.2       14.6       14.9       15.0       15.3       15.4       15.7
      15.9       16.1       16.2
      33.5       32.2       30.5       29.3       27.6       26.1       24.3       22.4       20.8       18.8
      17.0       15.3       13.7       12.0       10.5        8.9        7.6        6.1        5.0        4.0
       3.0        2.3        1.6        1.2        0.8        0.8        0.6        0.5        0.6        0.7
       0.7        0.6        0.7        0.6        0.6        0.6        0.5        0.5        0.5        0.5
       0.5        0.5        0.5        0.5        0.5        0.5        0.5        0.5        0.5        0.5
       0.5        0.5        0.6        0.9        1.3        1.7        2.4        3.0        3.9        4.6
       5.6        6.4        7.4        8.3        9.4       10.4       11.5       12.5       13.3       14.1
      14.8       15.6       16.2
      33.5       32.1       30.3       28.0       25.9       23.5       20.9       18.3       15.6       13.1
      10.8        8.4        6.5        4.5        3.1        1.7        1.0        0.7        0.8        0.7
       0.8        0.8        0.7        0.8        0.7        0.8        0.6        0.7        0.7        0.8
       0.6        0.8        0.7        0.7        0.8        0.6        0.7        0.5        0.5        0.5
       0.5        0.5        0.5        0.5        0.5        0.5        0.5        0.5        0.5        0.5
       0.5        0.5        0.5        0.5        0.5        0.5        0.5        0.5        0.7        1.1
       1.6        2.5        3.5        4.7        6.1        7.6        8.8       10.2       11.7       12.9
      14.0       15.2       16.2
      33.5       32.1       29.8       27.5       24.9       22.2       19.3       16.5       13.5       10.8
       8.3        5.9        3.9        2.3        1.3        0.8        0.6        0.8        0.7        0.7
       0.6        0.7        0.7        0.8        0.6        0.7        0.6        0.6        0.7        0.5
       0.6        0.7        0.6        0.7        0.5        0.7        0.7        0.6        0.7        0.5
       0.7        0.7        0.6        0.7        0.6        0.7        0.7        0.6        0.6        0.7
       0.7        0.5        0.6        0.7        0.7        0.6        0.7        0.7        0.6        0.9
       1.1        1.8        2.8        4.0        5.2        6.7        8.1        9.8       11.2       12.6
      14.1       15.3       16.2
      33.5       32.1       30.3       28.0       25.9       23.5       20.9       18.3       15.6       13.1
      10.8        8.4        6.5        4.5        3.1        1.7        1.0        0.7        0.8        0.7
       0.8        0.8        0.7        0.8        0.7        0.8        0.6        0.7        0.7        0.8
       0.6        0.8        0.7        0.7        0.8        0.6        0.7        0.5        0.5        0.5
       0.5        0.5        0.5        0.5        0.5        0.5        0.5        0.5        0.5        0.5
       0.5        0.5        0.5        0.5        0.5        0.5        0.5        0.5        0.7        1.1
       1.6        2.5        3.5        4.7        6.1        7.6        8.8       10.2       11.7       12.9
      14.0       15.2       16.2
      33.5       32.2       30.5       29.3       27.6       26.1       24.3       22.4       20.8       18.8
      17.0       15.3       13.7       12.0       10.5        8.9        7.6        6.1        5.0        4.0
       3.0        2.3        1.6        1.2        0.8        0.8        0.6        0.5        0.6        0.7
       0.7        0.6        0.7        0.6        0.6        0.6        0.5        0.5        0.5        0.5
       0.5        0.5        0.5        0.5        0.5        0.5        0.5        0.5        0.5        0.5
       0.5        0.5        0.6        0.9        1.3        1.7        2.4        3.0        3.9        4.6
       5.6        6.4        7.4        8.3        9.4       10.4       11.5       12.5       13.3       14.1
      14.8       15.6       16.2
      33.5       32.1       31.3       30.7       30.1       29.4       29.0       28.4       27.7       27.0
      26.4       25.5       24.9       24.1       23.5       22.7       22.1       21.3       20.8       20.2
      19.5       19.0       18.3       17.9       17.4       16.8       16.5       16.1       15.6       15.1
      14.8       14.3       14.1       13.9       13.4       13.4       13.1        8.2        8.2        8.2
       8.3        8.4        8.5        8.7        8.8        8.9        9.3        9.4        9.6       10.0
      10.2       10.5       10.7       11.1       11.5       11.8       12.0       12.4       12.6       12.9
      13.3       13.6       14.0       14.2       14.6       14.9       15.0       15.3       15.4       15.7
      15.9       16.1       16.2
      33.5       32.2       32.3       32.3       32.4       32.5       32.6       32.6       32.6       32.7
      32.7       32.8       32.8       33.1       33.0       33.1       33.2       33.1       33.3       33.2
      33.3       33.2       33.3       33.3       33.4       33.4       33.4       33.4       33.4       33.3
      33.3       33.1       33.0       32.9       32.7       32.4       32.1       31.8       31.4       31.1
      30.6       30.2       29.7       29.2       28.7       28.2       27.7       27.1       26.5       25.9
      25.4       24.8       24.2       23.6       23.0       22.5       22.0       21.4       20.8       20.4
      19.9       19.4       18.9       18.4       18.1       17.8       17.4       17.1       16.9       16.8
      16.6       16.3       16.2
      33.5       33.5       34.3       35.0       35.7       36.4       37.0       37.5       38.2       38.7
      39.3       39.8       40.2       40.8       41.2       41.4       42.0       42.3       42.6       42.9
      43.2       43.2       43.0       42.9       42.9       42.5       42.1       41.8       41.4       40.8
      40.4       40.1       39.7       39.6       39.2       38.8       38.4       39.9       39.3       38.8
      38.3       37.9       37.3       36.9       36.5       36.0       35.6       35.2       34.8       34.3
      33.8       33.1       32.5       31.5       30.7       29.8       28.9       27.9       27.0       25.8
      25.0       24.0       22.9       22.0       21.2       20.5       19.8       19.0       18.4       17.6
      17.1       16.6       16.2
      33.5       35.0       36.7       37.9       39.3       40.3       41.5       42.4       43.1       43.2
      43.2       42.3       41.7       41.2       40.8       40.5       40.8       41.2       41.7       42.1
      42.5       42.8       43.0       43.2       43.2       43.4       43.6       43.6       43.6       43.7
      43.6       43.4       43.2       43.0       42.6       42.3       41.8       41.3       41.2       41.0
      40.6       40.4       39.8       39.4       38.7       38.3       37.7       36.9       36.4       35.6
      35.0       34.3       33.8       33.3       32.6       31.9       31.2       30.4       29.9       29.1
      28.7       28.0       26.9       25.6       24.4       23.3       22.2       21.0       20.0       18.9
      17.9       16.8       16.2
      33.5       36.5       38.5       40.4       42.0       43.2       44.3       44.2       43.0       42.2
      41.8       41.8       42.1       42.9       43.4       44.1       44.8       45.6       46.4       47.2
      47.8       48.6       49.6       50.3       51.0       51.6       52.5       53.1       53.5       53.7
      54.0       54.1       54.2       54.3       54.2       53.9       53.7       53.1       52.8       51.6
      50.9       49.7       48.9       48.2       47.3       46.3       45.3       44.2       43.3       42.3
      41.3       40.3       39.1       38.1       36.9       35.7       34.6       33.6       32.6       31.6
      30.3       29.0       28.2       27.5       26.6       25.4       24.0       22.5       21.3       20.0
      18.5       17.1       16.2
      33.5       37.1       39.3       41.0       43.0       44.0       44.5       43.4       42.1       41.6
      41.5       41.9       42.7       43.6       44.4       45.4       46.3       47.2       48.4       49.6
      50.7       52.0       53.5       54.7       55.5       56.2       56.7       57.0       57.3       57.7
      57.9       57.9       58.2       58.6       59.0       58.7       58.1       57.5       56.9       56.1
      55.2       54.5       53.8       53.0       52.0       51.1       50.0       48.8       47.6       46.1
      44.8       43.2       41.7       40.3       38.8       37.4       36.1       34.8       33.5       32.5
      31.4       30.1       28.9       28.0       27.3       26.2       25.0       23.5       22.1       20.5
      19.0       17.3       16.2
      33.5       36.5       38.5       40.4       42.0       43.2       44.3       44.2       43.0       42.2
      41.8       41.8       42.1       42.9       43.4       44.1       44.8       45.6       46.4       47.2
      47.8       48.6       49.6       50.3       51.0       51.6       52.5       53.1       53.5       53.7
      54.0       54.1       54.2       54.3       54.2       53.9       53.7       53.1       52.8       51.6
      50.9       49.7       48.9       48.2       47.3       46.3       45.3       44.2       43.3       42.3
      41.3       40.3       39.1       38.1       36.9       35.7       34.6       33.6       32.6       31.6
      30.3       29.0       28.2       27.5       26.6       25.4       24.0       22.5       21.3       20.0
      18.5       17.1       16.2
      33.5       35.0       36.7       37.9       39.3       40.3       41.5       42.4       43.1       43.2
      43.2       42.3       41.7       41.2       40.8       40.5       40.8       41.2       41.7       42.1
      42.5       42.8       43.0       43.2       43.2       43.4       43.6       43.6       43.6       43.7
      43.6       43.4       43.2       43.0       42.6       42.3       41.8       41.3       41.2       41.0
      40.6       40.4       39.8       39.4       38.7       38.3       37.7       36.9       36.4       35.6
      35.0       34.3       33.8       33.3       32.6       31.9       31.2       30.4       29.9       29.1
      28.7       28.0       26.9       25.6       24.4       23.3       22.2       21.0       20.0       18.9
      17.9       16.8       16.2
      33.5       33.5       34.3       35.0       35.7       36.4       37.0       37.5       38.2       38.7
      39.3       39.8       40.2       40.8       41.2       41.4       42.0       42.3       42.6       42.9
      43.2       43.2       43.0       42.9       42.9       42.5       42.1       41.8       41.4       40.8
      40.4       40.1       39.7       39.6       39.2       38.8       38.4       39.9       39.3       38.8
      38.3       37.9       37.3       36.9       36.5       36.0       35.6       35.2       34.8       34.3
      33.8       33.1       32.5       31.5       30.7       29.8       28.9       27.9       27.0       25.8
      25.0       24.0       22.9       22.0       21.2       20.5       19.8       19.0       18.4       17.6
      17.1       16.6       16.2
      33.5       32.2       32.3       32.3       32.4       32.5       32.6       32.6       32.6       32.7
      32.7       32.8       32.8       33.1       33.0       33.1       33.2       33.1       33.3       33.2
      33.3       33.2       33.3       33.3       33.4       33.4       33.4       33.4       33.4       33.3
      33.3       33.1       33.0       32.9       32.7       32.4       32.1       31.8       31.4       31.1
      30.6       30.2       29.7       29.2       28.7       28.2       27.7       27.1       26.5       25.9
      25.4       24.8       24.2       23.6       23.0       22.5       22.0       21.4       20.8       20.4
      19.9       19.4       18.9       18.4       18.1       17.8       17.4       17.1       16.9       16.8
      16.6       16.3       16.2
