IESNA:LM-63-1995
[TEST]     20442
[MANUFAC]COOPER LIGHTING - SHAPER                                 
[LUMCAT]610-CFL/2/26                                                                    
[LUMINAIRE]INTERIOR WALL MOUNT LUMINAIRE WITH WHITE INTERIOR AND WHITE PLASTIC LENS                                      
[LAMP]TWO SYLVANIA 26 WATT CPFL LAMPS                                                 
[LAMPCAT]CF26DD/E/841. LUMEN RATING = 3600 LMS.                                          
[OTHER]ONE UNIVERSAL C2642UNVSE BALLAST OPERATING AT 120 VAC AND 48 WATTS              
TILT=NONE
1
      3600
1
73
17
1
1
 -1.08
  0.00
  0.15
1
1
   48.0000
0 2.5 5 7.5 10 12.5 15 17.5 20 22.5 25 27.5 30 32.5 35 37.5
40 42.5 45 47.5 50 52.5 55 57.5 60 62.5 65 67.5 70 72.5 75
77.5 80 82.5 85 87.5 90 92.5 95 97.5 100 102.5 105 107.5 110
112.5 115 117.5 120 122.5 125 127.5 130 132.5 135 137.5 140
142.5 145 147.5 150 152.5 155 157.5 160 162.5 165 167.5 170
172.5 175 177.5 180
0 22.5 45 67.5 90 112.5 135 157.5 180 202.5 225 247.5
270 292.5 315 337.5 360
      82.3       82.3       82.5       83.1       83.4       82.3       83.1       82.8       81.8       81.5
      80.5       79.7       78.6       77.3       75.7       73.8       72.2       69.0       68.3       65.9
      63.7       61.1       58.4       55.8       51.5       48.8       47.3       43.3       40.7       39.4
      36.4       34.0       31.3       28.7       25.8       21.7       20.4       16.7       23.2       39.6
      63.5       89.2      116.5      142.0      165.9      190.6      214.2      238.9      263.3      288.8
     313.0      335.3      356.5      378.0      398.1      416.7      434.0      450.2      467.2      481.2
     495.5      508.3      520.8      532.5      543.1      551.9      559.6      566.2      571.2      575.8
     578.2      580.0      578.8
      82.3       83.9       83.9       83.9       83.6       84.1       84.7       84.1       83.6       83.1
      82.3       80.1       78.6       78.3       76.4       75.5       73.5       69.8       69.3       66.6
      64.5       62.1       59.3       56.9       52.6       49.9       48.4       45.7       43.3       39.6
      38.3       35.3       32.9       30.3       27.9       23.9       21.2       18.9       33.7       66.9
     121.9      164.3      195.4      220.4      244.2      268.1      293.5      318.2      342.7      369.2
     392.4      414.9      435.9      455.8      473.3      487.6      502.5      515.8      527.7      538.3
     546.3      553.9      560.6      566.2      571.5      574.7      578.4      581.0      582.4      582.4
     582.6      580.6      578.8
      82.3       83.6       83.9       84.1       84.7       84.1       82.8       82.3       83.1       82.1
      81.2       80.5       79.1       76.2       75.7       73.5       70.9       70.1       67.7       64.3
      62.9       59.5       57.8       55.4       52.1       50.2       48.4       46.0       43.6       41.4
      39.4       35.6       33.2       31.9       28.7       26.9       24.5       21.2       44.0       92.1
     149.7      199.6      234.6      259.8      279.3      298.7      319.9      339.8      360.5      385.2
     407.5      430.0      451.7      472.7      493.5      512.8      531.1      547.6      562.2      575.5
     584.3      589.8      594.6      598.8      601.4      601.4      600.5      596.7      593.5      589.0
     585.6      581.9      578.8
      82.3       81.8       83.1       82.5       82.8       82.8       81.0       81.8       81.0       80.1
      78.8       77.8       76.2       73.3       71.4       70.9       68.5       66.6       64.3       61.6
      59.8       57.4       53.6       52.3       49.7       47.5       46.0       44.0       42.2       39.6
      37.2       35.9       33.7       30.3       27.6       26.9       23.9       24.7       48.6      102.2
     160.9      206.0      237.0      260.7      284.5      302.6      318.5      336.3      356.7      382.5
     405.9      431.1      454.7      479.1      501.2      520.0      538.3      554.5      570.1      585.2
     598.3      609.5      616.7      618.5      616.9      616.1      614.7      609.2      603.6      594.8
     588.5      582.6      578.8
      82.3       82.5       82.4       82.4       81.5       80.8       80.2       78.9       77.1       75.5
      74.6       73.8       72.0       70.0       68.1       64.6       62.7       61.1       58.5       55.6
      53.5       51.0       47.8       46.0       43.2       41.3       40.6       38.3       37.1       34.4
      32.6       31.0       28.9       27.1       24.8       23.0       20.2       25.8       51.3       93.3
     144.7      195.9      236.7      264.0      288.0      304.6      318.7      335.4      354.5      377.0
     401.1      426.8      449.9      473.3      493.7      512.6      528.7      542.8      556.8      569.9
     582.2      592.7      600.6      604.2      602.7      598.7      595.6      593.5      590.0      585.7
     579.4      576.4      578.8
      82.3       82.1       81.0       80.5       79.4       78.1       77.0       75.1       73.8       71.6
      69.8       68.0       65.9       63.2       61.1       58.9       56.3       53.9       51.5       48.8
      45.4       43.1       40.7       38.3       35.3       34.6       32.6       31.1       29.5       28.9
      27.1       25.5       23.9       20.8       19.7       17.8       15.4       23.9       49.7       87.6
     137.5      191.3      233.1      255.1      273.4      290.2      308.4      328.1      350.1      374.8
     400.5      424.4      445.1      463.7      480.2      495.3      509.7      522.9      536.2      547.6
     559.3      568.3      576.2      579.2      577.8      574.4      571.5      573.6      574.9      572.0
     571.0      571.0      578.8
      82.3       82.3       81.0       79.7       78.3       77.3       75.7       73.3       72.2       69.6
      68.5       65.9       63.7       60.0       57.6       56.3       53.9       49.9       47.8       44.4
      42.5       39.8       35.9       33.7       30.6       28.7       27.9       26.0       25.2       23.4
      22.8       21.0       19.4       16.7       14.6       14.1       12.5       19.1       42.5       78.8
     123.7      165.7      193.7      215.0      236.0      258.9      283.0      308.4      332.6      357.0
     379.5      400.9      419.4      436.1      453.1      469.6      485.0      499.8      513.9      527.2
     538.3      547.1      551.3      552.4      553.9      558.5      562.0      565.1      566.4      566.2
     567.0      569.9      578.8
      82.3       81.2       80.7       78.1       77.8       75.5       73.5       73.3       70.1       69.3
      66.6       63.2       61.9       58.9       55.8       54.7       50.7       48.8       44.6       42.0
      40.1       37.2       33.2       31.3       28.4       25.2       23.6       21.0       18.0       17.0
      15.7       13.0       13.0       10.9       10.1        9.3        7.5       14.1       33.5       64.3
     100.3      129.8      153.9      179.5      205.5      230.4      254.5      277.7      299.4      322.5
     344.3      366.1      385.2      404.5      421.3      437.2      451.7      463.7      474.6      485.5
     496.4      508.0      518.9      529.6      538.3      545.2      550.6      555.8      560.3      565.9
     570.7      574.7      578.8
      82.3       81.5       80.5       79.4       78.1       76.2       74.9       73.1       69.6       68.8
      66.6       64.0       62.1       58.7       56.0       54.1       51.2       47.8       45.1       42.2
      37.9       35.0       33.5       30.8       27.4       25.0       21.7       18.4       15.7       14.4
      12.5        9.3        9.0        7.2        6.4        6.1        5.3        9.6       20.4       34.6
      52.8       74.9       98.3      121.3      145.8      168.8      191.3      215.8      238.9      262.8
     285.1      307.9      328.3      350.1      369.5      389.1      407.7      426.8      444.3      460.3
     477.0      492.4      506.2      519.7      532.2      542.8      552.9      561.1      568.3      573.1
     578.2      581.0      578.8
      82.3       81.2       80.7       78.1       77.8       75.5       73.5       73.3       70.1       69.3
      66.6       63.2       61.9       58.9       55.8       54.7       50.7       48.8       44.6       42.0
      40.1       37.2       33.2       31.3       28.4       25.2       23.6       21.0       18.0       17.0
      15.7       13.0       13.0       10.9       10.1        9.3        7.5       14.1       33.5       64.3
     100.3      129.8      153.9      179.5      205.5      230.4      254.5      277.7      299.4      322.5
     344.3      366.1      385.2      404.5      421.3      437.2      451.7      463.7      474.6      485.5
     496.4      508.0      518.9      529.6      538.3      545.2      550.6      555.8      560.3      565.9
     570.7      574.7      578.8
      82.3       82.3       81.0       79.7       78.3       77.3       75.7       73.3       72.2       69.6
      68.5       65.9       63.7       60.0       57.6       56.3       53.9       49.9       47.8       44.4
      42.5       39.8       35.9       33.7       30.6       28.7       27.9       26.0       25.2       23.4
      22.8       21.0       19.4       16.7       14.6       14.1       12.5       19.1       42.5       78.8
     123.7      165.7      193.7      215.0      236.0      258.9      283.0      308.4      332.6      357.0
     379.5      400.9      419.4      436.1      453.1      469.6      485.0      499.8      513.9      527.2
     538.3      547.1      551.3      552.4      553.9      558.5      562.0      565.1      566.4      566.2
     567.0      569.9      578.8
      82.3       82.1       81.0       80.5       79.4       78.1       77.0       75.1       73.8       71.6
      69.8       68.0       65.9       63.2       61.1       58.9       56.3       53.9       51.5       48.8
      45.4       43.1       40.7       38.3       35.3       34.6       32.6       31.1       29.5       28.9
      27.1       25.5       23.9       20.8       19.7       17.8       15.4       23.9       49.7       87.6
     137.5      191.3      233.1      255.1      273.4      290.2      308.4      328.1      350.1      374.8
     400.5      424.4      445.1      463.7      480.2      495.3      509.7      522.9      536.2      547.6
     559.3      568.3      576.2      579.2      577.8      574.4      571.5      573.6      574.9      572.0
     571.0      571.0      578.8
      82.3       82.5       82.4       82.4       81.5       80.8       80.2       78.9       77.1       75.5
      74.6       73.8       72.0       70.0       68.1       64.6       62.7       61.1       58.5       55.6
      53.5       51.0       47.8       46.0       43.2       41.3       40.6       38.3       37.1       34.4
      32.6       31.0       28.9       27.1       24.8       23.0       20.2       25.8       51.3       93.3
     144.7      195.9      236.7      264.0      288.0      304.6      318.7      335.4      354.5      377.0
     401.1      426.8      449.9      473.3      493.7      512.6      528.7      542.8      556.8      569.9
     582.2      592.7      600.6      604.2      602.7      598.7      595.6      593.5      590.0      585.7
     579.4      576.4      578.8
      82.3       81.8       83.1       82.5       82.8       82.8       81.0       81.8       81.0       80.1
      78.8       77.8       76.2       73.3       71.4       70.9       68.5       66.6       64.3       61.6
      59.8       57.4       53.6       52.3       49.7       47.5       46.0       44.0       42.2       39.6
      37.2       35.9       33.7       30.3       27.6       26.9       23.9       24.7       48.6      102.2
     160.9      206.0      237.0      260.7      284.5      302.6      318.5      336.3      356.7      382.5
     405.9      431.1      454.7      479.1      501.2      520.0      538.3      554.5      570.1      585.2
     598.3      609.5      616.7      618.5      616.9      616.1      614.7      609.2      603.6      594.8
     588.5      582.6      578.8
      82.3       83.6       83.9       84.1       84.7       84.1       82.8       82.3       83.1       82.1
      81.2       80.5       79.1       76.2       75.7       73.5       70.9       70.1       67.7       64.3
      62.9       59.5       57.8       55.4       52.1       50.2       48.4       46.0       43.6       41.4
      39.4       35.6       33.2       31.9       28.7       26.9       24.5       21.2       44.0       92.1
     149.7      199.6      234.6      259.8      279.3      298.7      319.9      339.8      360.5      385.2
     407.5      430.0      451.7      472.7      493.5      512.8      531.1      547.6      562.2      575.5
     584.3      589.8      594.6      598.8      601.4      601.4      600.5      596.7      593.5      589.0
     585.6      581.9      578.8
      82.3       83.9       83.9       83.9       83.6       84.1       84.7       84.1       83.6       83.1
      82.3       80.1       78.6       78.3       76.4       75.5       73.5       69.8       69.3       66.6
      64.5       62.1       59.3       56.9       52.6       49.9       48.4       45.7       43.3       39.6
      38.3       35.3       32.9       30.3       27.9       23.9       21.2       18.9       33.7       66.9
     121.9      164.3      195.4      220.4      244.2      268.1      293.5      318.2      342.7      369.2
     392.4      414.9      435.9      455.8      473.3      487.6      502.5      515.8      527.7      538.3
     546.3      553.9      560.6      566.2      571.5      574.7      578.4      581.0      582.4      582.4
     582.6      580.6      578.8
      82.3       82.3       82.5       83.1       83.4       82.3       83.1       82.8       81.8       81.5
      80.5       79.7       78.6       77.3       75.7       73.8       72.2       69.0       68.3       65.9
      63.7       61.1       58.4       55.8       51.5       48.8       47.3       43.3       40.7       39.4
      36.4       34.0       31.3       28.7       25.8       21.7       20.4       16.7       23.2       39.6
      63.5       89.2      116.5      142.0      165.9      190.6      214.2      238.9      263.3      288.8
     313.0      335.3      356.5      378.0      398.1      416.7      434.0      450.2      467.2      481.2
     495.5      508.3      520.8      532.5      543.1      551.9      559.6      566.2      571.2      575.8
     578.2      580.0      578.8
