IESNA:LM-63-2002
[TEST]P20365-114
[TESTLAB]COOPER LIGHTING INNOVATION CENTER
[ISSUEDATE]02/05/10
[MANUFAC]COOPER LIGHTING - LUMARK
[LUMCAT]CFWP-GL-114-E
[LUMINAIRE]LUMARK WAL-PAK FLUORESCENT WALL MOUNTED FIXTURE WITH BOROSILICATE GLASS 
[LAMPCAT](2) 57 WATTS
[LAMP]TWO 4 PIN 57W TRIPLE TWIN TUBE FLUORESCENT LAMPS
TILT=NONE
2 4300 0.826923 73 22 1 1 2 1 0.1
1 1 114
0 2.5 5 7.5 10 12.5 15 17.5 20 22.5
25 27.5 30 32.5 35 37.5 40 42.5 45 47.5
50 52.5 55 57.5 60 62.5 65 67.5 70 72.5
75 77.5 80 82.5 85 87.5 90 92.5 95 97.5
100 102.5 105 107.5 110 112.5 115 117.5 120 122.5
125 127.5 130 132.5 135 137.5 140 142.5 145 147.5
150 152.5 155 157.5 160 162.5 165 167.5 170 172.5
175 177.5 180
0 5 15 21 25 35 45 55 65 75
85 90 95 105 115 125 135 145 155 165
175 180
564 606 654 711 779 843 893 930 954 961
959 959 960 964 964 960 958 963 970 965
971 978 973 962 942 915 887 856 835 846
922 1012 1065 1100 1120 1103 1083 1083 1072 1025
918 786 689 615 539 463 394 342 299 260
224 195 172 155 144 135 128 125 122 115
105 92 76 59 41 0 0 0 0 0
0 0 0
564 606 653 710 777 842 892 929 954 961
960 960 961 965 966 962 962 967 973 968
975 980 975 965 944 917 889 858 836 846
921 1010 1065 1101 1121 1105 1084 1084 1073 1025
917 784 688 615 541 466 396 343 301 261
226 196 173 156 144 136 129 126 122 115
104 91 76 59 40 0 0 0 0 0
0 0 0
564 605 651 706 771 835 887 927 954 966
966 966 968 973 977 978 985 996 1000 997
1002 1004 1001 991 967 936 903 870 845 850
916 1003 1060 1097 1120 1105 1081 1080 1069 1014
900 774 684 618 547 470 400 349 306 266
230 201 178 161 149 139 132 127 122 113
102 88 73 55 36 0 0 0 0 0
0 0 0
564 604 648 701 763 826 880 923 953 968
970 970 973 978 984 989 998 1014 1021 1019
1020 1020 1017 1011 990 955 919 884 856 855
915 1002 1062 1100 1125 1115 1088 1082 1067 1008
891 766 681 615 542 464 399 349 305 265
230 201 180 164 151 140 133 127 121 110
98 84 68 51 32 0 0 0 0 0
0 0 0
564 604 646 698 758 819 875 920 951 969
974 973 976 980 986 992 1001 1019 1030 1028
1027 1026 1022 1017 1000 965 928 893 863 857
913 999 1059 1098 1124 1116 1091 1086 1069 1005
884 759 675 606 530 456 396 347 303 263
229 201 181 165 152 140 133 127 119 108
95 80 64 47 28 0 0 0 0 0
0 0 0
564 601 639 685 740 796 850 899 937 960
972 974 972 973 975 978 982 992 1007 1011
1007 1003 993 986 979 958 925 892 857 837
873 954 1014 1046 1074 1078 1055 1038 998 907
766 658 584 521 464 414 369 326 285 250
220 198 179 162 148 138 130 121 110 97
82 67 51 33 19 0 0 0 0 0
0 0 0
564 597 630 670 715 763 811 859 900 927
941 948 951 948 941 935 932 931 935 941
942 938 926 902 881 863 835 803 774 749
751 791 833 856 880 883 840 799 747 658
559 488 444 411 380 347 314 280 249 223
202 181 162 148 137 127 116 104 92 78
63 47 31 19 10 0 0 0 0 0
0 0 0
564 592 620 651 687 723 761 800 835 860
877 886 888 886 879 871 862 854 846 838
831 819 801 778 747 714 685 657 632 616
611 614 625 631 631 610 571 538 493 441
395 364 342 322 300 274 247 223 200 178
158 144 133 123 112 101 90 77 64 49
35 24 15 8 1 0 0 0 0 0
0 0 0
564 586 607 630 656 681 705 730 752 768
778 783 783 779 770 758 744 732 719 705
690 669 643 615 587 558 527 495 467 445
431 419 414 411 400 383 361 346 327 304
285 268 249 229 208 187 166 145 129 119
109 100 91 81 71 60 48 37 28 21
15 9 1 0 0 0 0 0 0 0
0 0 0
564 579 592 608 624 638 650 661 669 672
670 665 658 648 635 617 598 579 560 540
519 495 467 438 410 382 354 326 301 279
260 244 231 220 209 195 181 175 164 152
142 132 121 108 97 89 83 76 69 62
54 47 40 34 28 23 17 12 8 6
3 2 1 1 1 0 0 0 0 0
0 0 0
564 571 576 583 591 595 597 598 595 586
575 561 546 529 510 488 467 445 423 400
377 351 322 294 268 243 219 196 176 156
139 123 109 96 84 73 63 58 52 47
45 43 42 40 38 36 33 30 27 25
22 20 18 15 13 11 9 7 5 4
3 2 1 1 1 0 0 0 0 0
0 0 0
564 567 568 571 574 573 571 567 560 547
532 514 496 476 455 431 408 385 362 339
315 290 264 239 216 195 175 156 138 122
107 93 80 67 56 46 38 33 30 29
29 28 28 27 26 25 24 22 20 19
17 16 14 12 10 9 7 6 4 3
2 2 1 1 1 0 0 0 0 0
0 0 0
564 563 560 558 557 552 544 535 524 508
491 472 452 432 409 386 362 339 316 293
271 248 226 205 186 168 151 135 120 106
92 79 67 55 43 35 30 27 26 25
25 24 23 23 22 21 20 19 17 16
15 13 12 10 9 7 6 5 3 3
2 1 1 1 1 0 0 0 0 0
0 0 0
564 554 542 531 524 516 505 494 480 462
441 418 394 369 344 318 293 269 246 225
206 188 171 156 143 131 120 109 98 87
75 63 52 42 35 31 27 26 24 23
22 20 19 18 17 16 15 14 13 11
10 9 8 6 5 4 3 2 2 1
1 1 1 1 1 0 0 0 0 0
0 0 0
564 546 524 513 503 489 475 459 440 417
392 366 339 313 287 262 239 217 197 181
165 152 140 130 121 112 102 92 82 72
61 51 41 34 28 25 23 22 20 19
17 16 14 13 12 11 10 9 8 7
6 5 4 3 2 2 2 1 1 1
1 1 1 1 1 0 0 0 0 0
0 0 0
564 537 513 498 482 464 444 423 400 374
348 322 296 270 244 221 201 183 168 155
144 134 125 116 108 98 90 80 70 59
46 36 28 22 18 16 14 13 12 11
9 8 7 7 6 5 5 4 3 2
2 2 1 1 1 0 0 0 0 0
0 0 0 0 0 0 0 0 0 0
0 0 0
564 528 503 484 463 439 415 391 366 341
314 285 257 232 209 190 174 160 149 139
131 123 116 107 99 90 81 69 57 43
31 24 17 12 9 8 7 6 5 4
3 2 2 2 1 1 1 1 1 0
0 0 0 0 0 0 0 0 0 0
0 0 0 0 0 0 0 0 0 0
0 0 0
564 522 494 471 447 419 392 366 341 312
280 250 224 202 183 168 155 145 137 130
122 114 108 101 91 81 69 56 41 28
21 14 7 4 3 2 2 1 1 1
1 0 0 0 0 0 0 0 0 0
0 0 0 0 0 0 0 0 0 0
0 0 0 0 0 0 0 0 0 0
0 0 0
564 517 488 462 433 403 374 348 318 285
251 222 198 178 162 150 141 134 127 120
113 109 101 92 83 70 58 42 28 20
13 6 1 0 0 0 0 0 0 0
0 0 0 0 0 0 0 0 0 0
0 0 0 0 0 0 0 0 0 0
0 0 0 0 0 0 0 0 0 0
0 0 0
564 515 483 455 425 392 362 333 299 263
229 200 178 160 147 137 129 123 117 112
107 101 93 86 77 62 49 33 23 16
10 2 0 0 0 0 0 0 0 0
0 0 0 0 0 0 0 0 0 0
0 0 0 0 0 0 0 0 0 0
0 0 0 0 0 0 0 0 0 0
0 0 0
564 513 481 451 419 386 355 324 288 251
217 188 166 149 137 128 121 115 111 106
103 97 91 83 70 60 44 30 20 14
8 2 0 0 0 0 0 0 0 0
0 0 0 0 0 0 0 0 0 0
0 0 0 0 0 0 0 0 0 0
0 0 0 0 0 0 0 0 0 0
0 0 0
564 513 480 451 419 385 354 323 287 249
215 187 165 148 136 127 121 115 110 106
103 97 91 83 70 60 44 30 20 14
8 2 0 0 0 0 0 0 0 0
0 0 0 0 0 0 0 0 0 0
0 0 0 0 0 0 0 0 0 0
0 0 0 0 0 0 0 0 0 0
0 0 0
