IESNA:LM-63-2002
[TEST]P20369-57
[TESTLAB]COOPER LIGHTING INNOVATION CENTER
[ISSUEDATE]02/02/10
[MANUFAC]COOPER LIGHTING - LUMARK
[LUMCAT]CFWP-GL-57-E
[LUMINAIRE]LUMARK WAL-PAK FLUORESCENT WALL MOUNTED FIXTURE WITH BOROSILICATE GLASS
[LAMPCAT](1) 57 WATTS
[LAMP]ONE 4 PIN TRIPLE TWIN TUBE 57W FLUORESCENT LAMP 
TILT=NONE
1 4300 0.826923 73 22 1 1 2 1 0.1
1 1 57
0 2.5 5 7.5 10 12.5 15 17.5 20 22.5
25 27.5 30 32.5 35 37.5 40 42.5 45 47.5
50 52.5 55 57.5 60 62.5 65 67.5 70 72.5
75 77.5 80 82.5 85 87.5 90 92.5 95 97.5
100 102.5 105 107.5 110 112.5 115 117.5 120 122.5
125 127.5 130 132.5 135 137.5 140 142.5 145 147.5
150 152.5 155 157.5 160 162.5 165 167.5 170 172.5
175 177.5 180
0 5 15 25 32.5 35 45 55 65 75
85 90 95 105 115 125 135 145 155 165
175 180
249 288 334 390 452 517 573 620 651 661
660 655 647 638 625 613 611 624 638 636
648 657 648 643 636 623 609 579 542 505
474 444 412 380 349 319 293 270 245 220
197 178 161 143 125 111 101 91 83 76
70 64 59 55 54 53 54 56 58 57
53 0 0 0 0 0 0 0 0 0
0 0 0
249 288 334 389 452 515 572 618 650 661
660 656 648 639 627 615 614 626 639 638
649 656 648 643 636 623 609 578 541 503
472 443 411 379 348 319 293 270 246 221
197 178 162 143 125 112 101 92 84 77
71 65 60 56 54 54 54 57 59 57
53 0 0 0 0 0 0 0 0 0
0 0 0
249 286 330 384 444 506 562 610 644 661
664 664 659 651 641 632 636 647 655 656
667 668 659 653 643 629 612 581 543 503
469 438 407 376 345 315 288 265 244 221
197 179 163 145 128 116 106 96 88 82
75 69 63 60 58 57 57 59 60 56
51 0 0 0 0 0 0 0 0 0
0 0 0
249 284 325 375 430 488 543 592 630 654
665 670 671 668 662 657 664 679 692 694
703 708 693 681 665 644 622 590 548 503
465 432 401 370 339 308 279 254 230 208
186 169 153 137 123 112 103 94 87 80
74 69 65 63 61 60 60 61 59 55
49 0 0 0 0 0 0 0 0 0
0 0 0
249 282 319 365 415 468 521 569 610 641
659 670 675 677 675 675 681 696 712 717
720 727 715 695 676 649 620 587 543 494
453 418 387 357 326 294 263 236 211 188
168 151 135 123 113 104 95 88 82 77
72 68 65 64 62 62 62 61 56 51
44 0 0 0 0 0 0 0 0 0
0 0 0
249 281 317 361 410 460 512 560 601 633
655 668 675 679 679 679 684 697 713 720
721 726 718 697 675 647 614 581 536 486
443 408 377 347 316 285 254 227 203 180
160 143 129 117 108 100 93 86 80 75
71 68 65 64 62 62 61 59 55 49
41 0 0 0 0 0 0 0 0 0
0 0 0
249 277 308 345 385 427 471 515 556 590
618 641 658 670 675 676 678 683 691 698
697 694 688 671 645 610 568 527 483 434
387 349 315 285 255 226 199 177 157 139
124 111 102 96 90 84 79 75 71 68
66 64 63 62 61 60 56 52 46 38
30 0 0 0 0 0 0 0 0 0
0 0 0
249 272 297 326 357 389 423 458 493 524
553 577 599 615 625 627 627 624 621 615
610 603 591 579 559 532 500 461 418 374
329 288 251 218 188 160 137 121 107 96
88 82 77 73 69 66 64 62 61 60
59 58 57 56 52 48 43 37 30 22
13 0 0 0 0 0 0 0 0 0
0 0 0
249 267 285 306 328 351 374 398 422 445
466 486 503 515 521 521 516 506 494 481
467 455 443 431 418 402 380 352 319 281
245 210 178 150 126 104 86 75 67 62
59 56 54 53 51 50 49 49 48 48
46 45 42 38 33 28 21 14 10 7
4 0 0 0 0 0 0 0 0 0
0 0 0
249 261 272 285 299 312 326 340 354 367
378 389 398 403 404 399 389 374 355 333
312 294 278 263 250 235 219 203 185 165
143 120 99 82 67 54 45 39 36 35
35 35 34 33 33 32 31 30 28 27
23 20 16 13 11 8 6 4 2 2
1 0 0 0 0 0 0 0 0 0
0 0 0
249 254 259 264 270 276 282 288 293 297
300 302 303 301 296 288 276 261 243 222
201 181 162 146 131 117 104 92 81 70
60 49 40 32 26 22 19 17 16 14
15 15 15 15 14 13 12 11 10 9
8 7 6 5 4 3 2 2 1 1
1 0 0 0 0 0 0 0 0 0
0 0 0
249 251 252 254 257 259 261 263 265 266
265 264 261 257 249 239 227 212 195 176
157 139 123 108 96 84 74 64 55 48
40 34 29 24 20 16 13 11 10 10
10 10 10 10 9 9 8 8 7 6
6 5 4 4 3 2 2 1 1 1
1 0 0 0 0 0 0 0 0 0
0 0 0
249 247 245 244 243 241 240 238 236 233
231 228 224 218 211 201 189 175 161 145
129 115 102 90 81 71 63 56 49 43
38 33 28 23 18 14 11 10 10 9
9 9 8 8 8 7 7 7 6 5
5 4 3 3 2 2 1 1 1 1
0 0 0 0 0 0 0 0 0 0
0 0 0
249 241 231 222 216 213 211 208 205 200
195 189 181 173 164 154 143 131 120 110
100 90 82 75 69 64 59 54 49 44
38 33 27 22 17 14 11 10 9 8
8 8 7 7 6 6 5 5 4 4
3 2 2 1 1 1 1 0 0 0
0 0 0 0 0 0 0 0 0 0
0 0 0
249 234 216 208 202 196 191 185 179 172
164 155 147 139 131 124 116 109 102 94
87 81 75 70 66 61 56 51 46 40
34 28 22 17 13 10 9 8 7 6
6 5 5 4 4 3 3 3 2 2
1 1 1 1 0 0 0 0 0 0
0 0 0 0 0 0 0 0 0 0
0 0 0
249 227 207 198 189 180 171 163 154 146
138 132 126 120 114 108 103 97 91 86
81 76 71 67 62 56 51 45 39 33
26 20 15 11 8 6 5 4 4 3
3 2 2 2 1 1 1 1 1 0
0 0 0 0 0 0 0 0 0 0
0 0 0 0 0 0 0 0 0 0
0 0 0
249 220 201 188 176 164 153 143 135 129
123 117 111 107 103 99 95 90 86 81
77 73 68 63 58 52 46 39 32 25
18 14 9 5 4 3 2 1 1 1
1 1 1 0 0 0 0 0 0 0
0 0 0 0 0 0 0 0 0 0
0 0 0 0 0 0 0 0 0 0
0 0 0
249 215 195 179 165 151 139 130 124 117
110 105 102 99 96 92 88 84 80 77
72 67 63 58 52 46 39 32 24 17
13 8 3 1 1 1 0 0 0 0
0 0 0 0 0 0 0 0 0 0
0 0 0 0 0 0 0 0 0 0
0 0 0 0 0 0 0 0 0 0
0 0 0
249 211 191 173 156 141 129 121 114 107
101 98 96 92 88 84 81 77 73 69
65 62 57 51 46 39 33 25 18 13
9 4 0 0 0 0 0 0 0 0
0 0 0 0 0 0 0 0 0 0
0 0 0 0 0 0 0 0 0 0
0 0 0 0 0 0 0 0 0 0
0 0 0
249 209 187 168 150 134 123 115 107 100
95 92 88 85 81 78 74 70 66 62
60 56 51 47 42 34 28 20 15 10
6 1 0 0 0 0 0 0 0 0
0 0 0 0 0 0 0 0 0 0
0 0 0 0 0 0 0 0 0 0
0 0 0 0 0 0 0 0 0 0
0 0 0
249 208 186 165 147 131 119 111 102 96
92 87 83 80 76 73 69 64 60 58
56 52 49 45 38 32 25 19 13 9
5 1 0 0 0 0 0 0 0 0
0 0 0 0 0 0 0 0 0 0
0 0 0 0 0 0 0 0 0 0
0 0 0 0 0 0 0 0 0 0
0 0 0
249 208 186 165 147 131 119 111 102 95
91 87 83 79 76 72 68 64 60 58
55 52 49 45 38 32 24 18 13 9
5 1 0 0 0 0 0 0 0 0
0 0 0 0 0 0 0 0 0 0
0 0 0 0 0 0 0 0 0 0
0 0 0 0 0 0 0 0 0 0
0 0 0
