IESNA:LM-63-2002
[TEST]253P346
[TESTLAB]METALUX LABORATORIES
[ISSUEDATE]05/12/08
[MANUFAC]COOPER LIGHTING - SHAPER
[LUMCAT]1220-XX-44-CFL/4/57-T5C/1/40
[LUMINAIRE]SHAPER 44 INCH 1220 SERIES DIRECT/INDIRECT INDOOR PENDANT FIXTURE
[MORE]WITH DEEP DIFFUSING BOWL AND 6" APERTURE
[LAMP]FOUR 57 WATT COMPACT FLUORESCENT LAMP AND ONE 40 WATTS T5 CIRCLINE
[MORE](4)F57BX/840 - 4300 LUMENS AND (1)TL5C40W/830 - 3300 LUMENS
[OTHER]PRORATED FROM TEST NO: 253P346
TILT=NONE
1 20500 1 73 19 1 1 -3.666667 -3.666667 1.333333
1 1 43
0 2.5 5 7.5 10 12.5 15 17.5 20 22.5
25 27.5 30 32.5 35 37.5 40 42.5 45 47.5
50 52.5 55 57.5 60 62.5 65 67.5 70 72.5
75 77.5 80 82.5 85 87.5 90 92.5 95 97.5
100 102.5 105 107.5 110 112.5 115 117.5 120 122.5
125 127.5 130 132.5 135 137.5 140 142.5 145 147.5
150 152.5 155 157.5 160 162.5 165 167.5 170 172.5
175 177.5 180
0 5 10 15 20 25 30 35 40 45
50 55 60 65 70 75 80 85 90
332 332 331 330 328 326 322 319 314 309
304 298 292 286 280 273 266 259 252 244
236 229 220 212 204 196 187 179 170 162
154 145 137 128 120 112 5 525.9 1221.4 1834.1
2152.5 2374.9 2611.4 2824.8 2909.9 2927.3 2901.7 2931.4 2939.7 2929.8
2956.2 3000.9 3006.7 2999.2 3000.1 3017.4 3051.3 3115 3053.8 2955.4
2811.5 2704.9 2650.3 2585.8 2506.4 2448.5 2393.9 2331.1 2253.4 2174
2096.2 2033.4 1987.9
332 332 331 330 328 326 322 319 314 309
304 298 292 286 280 273 266 259 252 244
236 229 220 212 204 196 187 179 170 162
154 145 137 128 120 112 5 438.3 1084.1 1653
1984.6 2233.5 2463.4 2676.8 2803.3 2869.4 2895.9 2961.2 2995.1 3005.9
3037.3 3077 3086.1 3078.6 3076.2 3086.1 3120.8 3164.6 3100.1 2994.3
2870.2 2769.4 2704.9 2630.4 2542 2473.3 2409.7 2338.5 2256.7 2174
2094.6 2030.9 1987.9
332 332 331 330 328 326 322 319 314 309
304 298 292 286 280 273 266 259 252 244
236 229 220 212 204 196 187 179 170 162
154 145 137 128 120 112 5 350.6 946 1471.9
1817.6 2092.1 2316.2 2528.7 2697.4 2811.5 2890.1 2991 3050.5 3081.9
3118.3 3153.1 3165.5 3158 3152.2 3155.5 3190.3 3213.4 3145.6 3033.2
2929 2833.9 2759.4 2675.9 2577.5 2498.1 2425.4 2345.2 2260 2174
2092.9 2027.6 1987.9
332 332 331 330 328 326 322 319 314 309
304 298 292 286 280 273 266 259 252 244
236 229 220 212 204 196 187 179 170 162
154 145 137 128 120 112 4 262.1 808.7 1290.8
1649.7 1950.7 2168.2 2380.7 2590.8 2754.5 2884.3 3021.6 3105.9 3157.2
3198.5 3230 3244.8 3236.6 3227.5 3224.2 3260.6 3263 3191.9 3072
2987.7 2898.4 2814 2720.6 2613.1 2523.8 2441.1 2352.6 2263.3 2174
2092.1 2025.1 1987.9
332 332 331 330 328 326 322 319 314 309
304 298 292 286 280 273 266 259 252 244
236 229 220 212 204 196 187 179 170 162
154 145 137 128 120 112 4 174.5 670.6 1109.7
1481.8 1809.3 2020.2 2232.7 2484.1 2696.6 2878.5 3051.3 3161.3 3233.3
3279.6 3306 3324.2 3316 3303.6 3292.8 3330 3311.8 3237.4 3110.9
3046.4 2962.9 2868.6 2766.1 2648.6 2548.6 2456.8 2360 2266.6 2174
2090.5 2022.7 1987.9
332 332 331 330 328 326 322 319 314 309
304 298 292 286 280 273 266 259 252 244
236 229 220 212 204 196 187 179 170 162
154 145 137 128 120 112 4 132.3 595.4 1011.3
1390.9 1729.9 1942.4 2162.4 2438.6 2685.8 2896.7 3084.4 3201.8 3274.6
3319.3 3342.4 3364.8 3363.1 3351.5 3338.3 3370.5 3340.8 3264.7 3141.5
3086.9 3005.9 2905.8 2802.4 2685.8 2575 2472.5 2368.3 2270.7 2174.8
2090.5 2021.8 1987.9
332 332 331 330 328 326 322 319 314 309
304 298 292 286 280 273 266 259 252 244
236 229 220 212 204 196 187 179 170 162
154 145 137 128 120 112 4 135.6 581.3 996.4
1376.8 1712.6 1933.3 2171.5 2453.5 2722.2 2938.9 3120 3226.7 3280.4
3316.8 3339.9 3365.6 3377.2 3371.4 3359.8 3381.3 3349.9 3273.8 3163.8
3109.2 3028.2 2925.7 2831.4 2723.1 2604 2488.2 2377.4 2274.9 2177.3
2092.1 2022.7 1987.9
332 332 331 330 328 326 322 319 314 309
304 298 292 286 280 273 266 259 252 244
236 229 220 212 204 196 187 179 170 162
154 145 137 128 120 112 3 139.8 567.3 982.4
1362.8 1695.2 1924.2 2180.6 2468.4 2758.6 2981.1 3156.4 3250.6 3287
3314.3 3336.6 3367.2 3391.2 3391.2 3380.5 3392 3358.1 3282.1 3186.1
3131.6 3050.5 2945.5 2859.5 2760.3 2632.9 2503.9 2386.5 2279 2179.8
2092.9 2024.3 1987.9
332 332 331 330 328 326 322 319 314 309
304 298 292 286 280 273 266 259 252 244
236 229 220 212 204 196 187 179 170 162
154 145 137 128 120 112 3 143.1 554 967.5
1348.7 1677.8 1915.2 2188.9 2483.2 2795 3022.4 3191.9 3275.4 3292.8
3311.8 3334.2 3368.1 3406.1 3411.1 3402 3402.8 3367.2 3291.2 3209.3
3153.9 3072 2965.3 2888.4 2797.5 2661 2520.5 2396.4 2284 2182.2
2094.6 2025.1 1987.9
332 332 331 330 328 326 322 319 314 309
304 298 292 286 280 273 266 259 252 244
236 229 220 212 204 196 187 179 170 162
154 145 137 128 120 112 3 146.4 540 952.6
1334.7 1660.5 1906.1 2198 2498.1 2831.4 3064.6 3228.3 3300.2 3299.4
3309.3 3330.8 3369.7 3420.2 3430.9 3423.5 3413.5 3375.5 3299.4 3231.6
3176.2 3094.3 2985.2 2916.6 2834.7 2690 2536.2 2405.5 2288.1 2184.7
2096.2 2026.8 1987.9
332 332 331 330 328 326 322 319 314 309
304 298 292 286 280 273 266 259 252 244
236 229 220 212 204 196 187 179 170 162
154 145 137 128 120 112 3 160.4 584.6 1010.5
1399.2 1696.8 1922.6 2200.4 2496.5 2813.2 3033.2 3196.1 3279.6 3304.4
3332.5 3352.3 3387.9 3430.1 3442.5 3452.4 3435.9 3401.1 3328.4 3246.5
3158.8 3081.1 2994.3 2906.6 2813.2 2681.7 2528.7 2398.1 2284 2183.1
2095.4 2025.1 1987.9
332 332 331 330 328 326 322 319 314 309
304 298 292 286 280 273 266 259 252 244
236 229 220 212 204 196 187 179 170 162
154 145 137 128 120 112 3 173.7 629.3 1068.4
1462.8 1733.2 1939.1 2203.8 2494.8 2794.2 3001.7 3164.6 3259.7 3309.3
3354.8 3373.8 3406.1 3440 3454.9 3481.3 3457.4 3426.8 3358.1 3261.4
3140.7 3067.1 3003.4 2897.5 2791.7 2673.4 2521.3 2389.8 2279.8 2181.4
2095.4 2023.5 1987.9
332 332 331 330 328 326 322 319 314 309
304 298 292 286 280 273 266 259 252 244
236 229 220 212 204 196 187 179 170 162
154 145 137 128 120 112 4 187.7 673.9 1126.3
1527.3 1770.4 1954.8 2206.2 2492.3 2776 2969.5 3132.4 3239.1 3315.1
3378 3394.5 3423.5 3449.9 3466.5 3510.3 3479.7 3452.4 3387.1 3275.4
3123.3 3053.8 3012.5 2887.6 2771 2665.2 2513.8 2382.4 2275.7 2178.9
2094.6 2021.8 1987.9
332 332 331 330 328 326 322 319 314 309
304 298 292 286 280 273 266 259 252 244
236 229 220 212 204 196 187 179 170 162
154 145 137 128 120 112 4 201.8 718.6 1184.2
1591 1806.8 1971.4 2208.7 2490.7 2757 2938.1 3100.1 3218.4 3320.1
3400.3 3416 3441.7 3459.8 3478.9 3539.2 3502 3478 3416 3290.3
3105.9 3039.8 3021.6 2878.5 2749.5 2656.9 2506.4 2374.9 2271.6 2177.3
2093.8 2020.2 1987.9
332 332 331 330 328 326 322 319 314 309
304 298 292 286 280 273 266 259 252 244
236 229 220 212 204 196 187 179 170 162
154 145 137 128 120 112 4 243.9 794.7 1281.7
1682 1886.2 2049.9 2279 2536.2 2767.7 2919.9 3067.1 3178.7 3278.8
3361.4 3379.6 3401.1 3412.7 3430.9 3493.8 3461.5 3449.1 3388.7 3259.7
3065.4 2996.8 2984.4 2841.3 2713.1 2630.4 2490.7 2366.7 2267.4 2176.5
2093.8 2021 1987.9
332 332 331 330 328 326 322 319 314 309
304 298 292 286 280 273 266 259 252 244
236 229 220 212 204 196 187 179 170 162
154 145 137 128 120 112 4 314.2 901.3 1419.8
1799.4 2008.6 2190.5 2415.4 2629.6 2807.4 2915.7 3033.2 3119.2 3191.9
3259.7 3284.5 3302.7 3309.3 3323.4 3374.7 3359 3365.6 3305.2 3183.7
3001.7 2924 2900.8 2777.6 2661 2585 2466.7 2357.6 2264.1 2175.6
2094.6 2024.3 1987.9
332 332 331 330 328 326 322 319 314 309
304 298 292 286 280 273 266 259 252 244
236 229 220 212 204 196 187 179 170 162
154 145 137 128 120 112 5 384.5 1008 1557.9
1917.6 2130.2 2330.3 2551.9 2723.1 2847.9 2910.8 2999.2 3058.8 3104.3
3158.8 3190.3 3204.3 3206 3215.1 3255.6 3256.4 3282.1 3221.7 3107.6
2938.1 2850.4 2817.3 2714 2609.8 2539.5 2442.7 2348.5 2260 2174.8
2095.4 2026.8 1987.9
332 332 331 330 328 326 322 319 314 309
304 298 292 286 280 273 266 259 252 244
236 229 220 212 204 196 187 179 170 162
154 145 137 128 120 112 5 455.6 1114.7 1696
2035.1 2252.5 2470.8 2688.3 2816.5 2887.6 2906.6 2965.3 2999.2 3017.4
3057.1 3095.2 3105.1 3102.6 3107.6 3136.5 3153.9 3198.5 3137.3 3031.5
2875.2 2777.6 2733.8 2649.5 2557.7 2494 2417.9 2340.2 2256.7 2174.8
2095.4 2030.1 1987.9
332 332 331 330 328 326 322 319 314 309
304 298 292 286 280 273 266 259 252 244
236 229 220 212 204 196 187 179 170 162
154 145 137 128 120 112 5 525.9 1221.4 1834.1
2152.5 2374.9 2611.4 2824.8 2909.9 2927.3 2901.7 2931.4 2939.7 2929.8
2956.2 3000.9 3006.7 2999.2 3000.1 3017.4 3051.3 3115 3053.8 2955.4
2811.5 2704.9 2650.3 2585.8 2506.4 2448.5 2393.9 2331.1 2253.4 2174
2096.2 2033.4 1987.9
