IESNA:LM-63-2002
[TEST]253P328
[TESTLAB]METALUX LABORATORIES
[ISSUEDATE]05/28/08
[MANUFAC]COOPER LIGHTING - SHAPER
[LUMCAT]1220-XX-44-CFL/8/39-T5C/1/40
[LUMINAIRE]SHAPER 44 INCH 1220 SERIES DIRECT/INDIRECT INDOOR PENDANT FIXTURE
[MORE]WITH DEEP DIFFUSING BOWL
[LAMP]EIGHT 39 WATT BIAX COMPACT FLUORESCENT LAMPS AND ONE 40 WATT T5 CIRCLINE
[MORE](8)F39BX - 2850 LUMENS AND (1)TL5C40W/830 - 3300 LUMENS
[OTHER]PRORATED FROM TEST NO: 253P328
TILT=NONE
1 26100 1 73 19 1 1 -3.666667 -3.666667 0.1
1 1 43
0 2.5 5 7.5 10 12.5 15 17.5 20 22.5
25 27.5 30 32.5 35 37.5 40 42.5 45 47.5
50 52.5 55 57.5 60 62.5 65 67.5 70 72.5
75 77.5 80 82.5 85 87.5 90 92.5 95 97.5
100 102.5 105 107.5 110 112.5 115 117.5 120 122.5
125 127.5 130 132.5 135 137.5 140 142.5 145 147.5
150 152.5 155 157.5 160 162.5 165 167.5 170 172.5
175 177.5 180
0 5 10 15 20 25 30 35 40 45
50 55 60 65 70 75 80 85 90
379 379 378 377 375 372 368 364 359 353
347 341 334 327 319 311 303 295 286 277
268 259 249 239 230 220 210 200 189 180
170 160 150 140 131 122 19 364.6 928.3 1378.9
1694.6 1986.9 2269.1 2546 2816.5 3065.3 3446.2 3893.2 4242.4 4578.1
4839.6 5036.8 5082 5061.2 5159.9 5303.7 5463 5593.2 5652 5639.4
5615 5539.9 5354.4 5037.7 4691.2 4323 3965.6 3648.9 3367.5 3102.4
2891.6 2755.9 2699.8
379 379 378 377 375 372 368 364 359 353
347 341 334 327 319 311 303 295 286 277
268 259 249 239 230 220 210 200 189 180
170 160 150 140 131 122 19 328.4 867.7 1328.2
1696.4 2039.3 2340.6 2628.3 2906.1 3159.4 3542.1 3978.2 4334.7 4671.3
4926.4 5099.2 5123.7 5116.4 5217.8 5358 5504.6 5613.1 5653.9 5635.8
5604.1 5511.8 5303.7 4981.6 4633.3 4270.5 3923 3614.5 3340.4 3084.3
2879.9 2750.5 2699.8
379 379 378 377 375 372 368 364 359 353
347 341 334 327 319 311 303 295 286 277
268 259 249 239 230 220 210 200 189 180
170 160 150 140 131 122 18 292.2 807 1277.5
1698.2 2091.8 2412.1 2710.7 2996.6 3252.6 3638 4063.3 4427 4765.4
5013.3 5162.6 5166.2 5172.5 5276.6 5412.3 5546.2 5633 5656.6 5632.1
5593.2 5483.8 5253 4925.5 4575.4 4218 3879.6 3581 3313.2 3066.2
2869 2745 2699.8
379 379 378 377 375 372 368 364 359 353
347 341 334 327 319 311 303 295 286 277
268 259 249 239 230 220 210 200 189 180
170 160 150 140 131 122 18 255.1 746.4 1226
1699.1 2143.4 2483.6 2793 3086.1 3346.7 3734 4147.4 4520.2 4858.6
5101 5225 5207.8 5227.7 5334.5 5465.7 5587.8 5653.9 5658.4 5627.6
5583.3 5455.7 5201.5 4870.3 4517.5 4164.6 3837.1 3546.7 3286.1 3048.1
2857.2 2738.7 2699.8
379 379 378 377 375 372 368 364 359 353
347 341 334 327 319 311 303 295 286 277
268 259 249 239 230 220 210 200 189 180
170 160 150 140 131 122 17 219 685.8 1175.3
1701 2195.9 2555 2875.3 3175.7 3439.9 3829.9 4232.5 4612.5 4951.8
5187.9 5287.4 5250.3 5282.9 5393.3 5520 5629.4 5673.8 5661.1 5624
5572.4 5427.7 5150.8 4814.2 4459.6 4112.1 3794.6 3513.2 3259 3030
2845.5 2733.3 2699.8
379 379 378 377 375 372 368 364 359 353
347 341 334 327 319 311 303 295 286 277
268 259 249 239 230 220 210 200 189 180
170 160 150 140 131 122 17 196.3 645.1 1133.7
1676.5 2185 2551.4 2890.7 3228.2 3519.5 3912.2 4303 4663.1 4969
5187 5286.5 5271.1 5330.9 5444.9 5569.7 5669.2 5703.6 5676.5 5622.2
5542.6 5370.7 5077.5 4739.1 4388.1 4048.8 3741.2 3467 3221 3003.8
2831.9 2727.9 2699.8
379 379 378 377 375 372 368 364 359 353
347 341 334 327 319 311 303 295 286 277
268 259 249 239 230 220 210 200 189 180
170 160 150 140 131 122 17 188.2 624.3 1100.2
1625.9 2110.8 2473.6 2839.1 3241.8 3583.8 3981 4358.2 4671.3 4909.2
5097.4 5220.5 5270.2 5369.8 5491 5614 5708.1 5743.4 5706.3 5621.3
5492.8 5283.8 4981.6 4645 4303 3975.5 3678.8 3410 3173 2970.3
2815.6 2723.3 2699.8
379 379 378 377 375 372 368 364 359 353
347 341 334 327 319 311 303 295 286 277
268 259 249 239 230 220 210 200 189 180
170 160 150 140 131 122 17 180 604.4 1066.7
1575.2 2036.6 2395.8 2786.7 3255.3 3648.9 4048.8 4413.4 4679.4 4848.6
5007.9 5154.4 5270.2 5408.7 5537.1 5659.3 5747 5782.3 5736.2 5621.3
5443 5197 4886.6 4550 4218 3902.2 3616.3 3353 3124.1 2936.9
2798.4 2718.8 2699.8
379 379 378 377 375 372 368 364 359 353
347 341 334 327 319 311 303 295 286 277
268 259 249 239 230 220 210 200 189 180
170 160 150 140 131 122 17 171 583.6 1034.1
1524.5 1962.4 2318 2735.1 3268.9 3713.1 4117.6 4469.5 4687.6 4788.9
4919.2 5088.4 5269.3 5448.5 5583.3 5703.6 5785 5822.1 5766 5620.4
5393.3 5110.1 4790.7 4456 4133 3828 3553.9 3296 3076.2 2902.5
2782.1 2714.3 2699.8
379 379 378 377 375 372 368 364 359 353
347 341 334 327 319 311 303 295 286 277
268 259 249 239 230 220 210 200 189 180
170 160 150 140 131 122 17 162.9 563.7 1000.7
1473.9 1888.2 2240.2 2682.6 3282.5 3778.3 4186.3 4524.7 4695.7 4729.2
4829.6 5022.3 5269.3 5487.4 5629.4 5748.9 5824 5862 5795.9 5620.4
5343.5 5023.2 4694.8 4361.9 4047.9 3754.8 3491.5 3239 3027.3 2869
2765.9 2709.8 2699.8
379 379 378 377 375 372 368 364 359 353
347 341 334 327 319 311 303 295 286 277
268 259 249 239 230 220 210 200 189 180
170 160 150 140 131 122 18 173.7 561.9 982.6
1426.8 1841.2 2198.6 2610.2 3119.6 3559.3 3969.2 4320.2 4513 4598
4717.4 4890.2 5093.8 5273.9 5383.3 5474.7 5529 5547.1 5484.7 5335.4
5098.3 4817 4521.1 4217.1 3928.5 3654.3 3408.2 3175.7 2982.1 2840
2753.2 2708 2699.8
379 379 378 377 375 372 368 364 359 353
347 341 334 327 319 311 303 295 286 277
268 259 249 239 230 220 210 200 189 180
170 160 150 140 131 122 20 184.6 561 964.5
1379.8 1794.1 2157 2538.8 2956.8 3339.5 3752 4114.9 4331.1 4466.8
4606.1 4758.1 4917.4 5061.2 5137.2 5200.6 5234 5232.2 5173.4 5050.4
4853.1 4610.7 4347.4 4071.4 3809 3553.9 3325 3113.3 2936.9 2812
2739.6 2707 2699.8
379 379 378 377 375 372 368 364 359 353
347 341 334 327 319 311 303 295 286 277
268 259 249 239 230 220 210 200 189 180
170 160 150 140 131 122 21 196.3 559.1 946.4
1333.6 1748 2116.2 2466.4 2793.9 3120.5 3535.8 3910.4 4148.3 4335.6
4494 4625.1 4741.9 4847.7 4890.2 4926.4 4939.1 4916.5 4862.2 4765.4
4608 4405.3 4172.8 3926.7 3690.5 3453.5 3241.8 3050 2891.6 2783
2727 2705.2 2699.8
379 379 378 377 375 372 368 364 359 353
347 341 334 327 319 311 303 295 286 277
268 259 249 239 230 220 210 200 189 180
170 160 150 140 131 122 22 207.2 558.2 928.3
1286.6 1701 2074.6 2394.9 2631 2900.7 3318.7 3705 3966.5 4204.4
4382.7 4493 4565.4 4635.1 4644.1 4652.3 4644.1 4601.6 4551 4480.4
4362.8 4199 3999 3781 3571.1 3353 3158.5 2987.5 2846.4 2755
2713.4 2704.3 2699.8
379 379 378 377 375 372 368 364 359 353
347 341 334 327 319 311 303 295 286 277
268 259 249 239 230 220 210 200 189 180
170 160 150 140 131 122 23 198.1 517.5 855
1178.9 1566.1 1920.8 2211.2 2397.6 2627.4 3022.8 3400.1 3660.7 3917.6
4101.3 4208 4264.1 4318.4 4326.6 4335.6 4333.8 4300.3 4266.9 4224.3
4142.9 4015.3 3847 3655.2 3468.9 3271.6 3093.4 2937.8 2812 2731.5
2700.7 2700.7 2699.8
379 379 378 377 375 372 368 364 359 353
347 341 334 327 319 311 303 295 286 277
268 259 249 239 230 220 210 200 189 180
170 160 150 140 131 122 23 168.3 437.9 726.5
1010.6 1344.5 1654.8 1915.4 2094.5 2299.9 2649.1 2993.9 3232.7 3473.4
3649.8 3770.1 3838 3898.6 3938.4 3977.3 4007.2 4013.5 4009.9 3995.4
3950.2 3853.4 3716.8 3549.4 3384.7 3209.2 3046.3 2902.5 2787.6 2714.3
2689 2695.3 2699.8
379 379 378 377 375 372 368 364 359 353
347 341 334 327 319 311 303 295 286 277
268 259 249 239 230 220 210 200 189 180
170 160 150 140 131 122 24 139.3 357.4 598
841.4 1122.8 1389.7 1620.4 1790.5 1971.5 2274.6 2587.6 2804.8 3029.1
3198.3 3332.2 3411 3477.9 3550.3 3618.1 3680.6 3725.8 3753 3766.5
3756.6 3692.3 3585.6 3443.5 3300.6 3145.9 2998.4 2867.2 2763.1 2697.1
2676.3 2690.8 2699.8
379 379 378 377 375 372 368 364 359 353
347 341 334 327 319 311 303 295 286 277
268 259 249 239 230 220 210 200 189 180
170 160 150 140 131 122 24 109.5 277.8 469.6
673.1 900.2 1123.7 1324.6 1487.4 1644 1900.9 2182.3 2376.8 2585.8
2746.9 2894.3 2984.8 3058.1 3162.1 3259.9 3354.9 3439 3496 3538.5
3563.9 3530.4 3455.3 3336.8 3215.5 3083.4 2951.3 2831.9 2738.7 2679
2664.5 2685.3 2699.8
379 379 378 377 375 372 368 364 359 353
347 341 334 327 319 311 303 295 286 277
268 259 249 239 230 220 210 200 189 180
170 160 150 140 131 122 24 80.5 198.1 341.1
504.9 678.6 857.7 1029.6 1183.4 1316.4 1526.3 1776 1948.9 2141.6
2295.4 2456.4 2557.8 2638.3 2774 2901.6 3028.2 3151.3 3239 3309.6
3370.2 3369.3 3325 3230.9 3131.4 3020.1 2904.3 2796.6 2714.3 2661.8
2651.9 2679.9 2699.8
