IESNA:LM-63-2002
[TEST]253P273
[TESTLAB]METALUX LABORITORIES
[ISSUEDATE]02/05/08
[MANUFAC]COOPER LIGHTING - SHAPER
[LUMCAT]1220-XX-26-CFL/3/42-T5C/1/22
[LUMINAIRE]SHAPER 26 INCH 1220 SERIES DIRECT/INDIRECt INDOOR PENDANT FIXTURE 
[MORE]WITH DEEP DIFFUSING BOWL
[LAMP]THREE 42 WATT PLT COMPACT FLOURESCENTS AND ONE 22 WATTS CIRCLINE
[MORE](3)CF42DT/E/IN841 - 3200 LUMENS AND (1) TL5C22/830 - 1800 LUMENS
TILT=NONE
1 11400 1 73 37 1 1 -1.708333 -1.708333 0.8125
1 1 24
0 2.5 5 7.5 10 12.5 15 17.5 20 22.5 25 27.5 30 32.5 35 37.5 40 42.5 45 47.5 50 52.5 55 57.5 60 62.5 65 67.5 70 72.5 75 77.5 80 82.5 85 87.5 90 92.5 95 97.5 100 102.5 105 107.5 110 112.5 115 117.5 120 122.5 125 127.5 130 132.5 135 137.5 140 142.5 145 147.5
 150 152.5 155 157.5 160 162.5 165 167.5 170 172.5 175 177.5 180
0 5 10 15 20 25 30 35 40 45 50 55 60 65 70 75 80 85 90 95 100 105 110 115 120 125 130 135 140 145 150 155 160 165 170 175 180
230.00 229.00 228.00 226.00 224.00 221.00 218.00 215.00 211.00 207.00 203.00 199.00 195.00 190.00 185.00 181.00 176.00 171.00 166.00 161.00 156.00 151.00 145.00 140.00 135.00 129.00 124.00 118.00 112.00 107.00 101.00 96.00 90.00 85.00 80.00 74.00 55.00 
214.00 603.00 828.00 1035.00 1169.00 1207.00 1235.00 1313.00 1418.00 1556.00 1689.00 1787.00 1885.00 1975.00 2050.00 2113.00 2180.00 2289.00 2360.00 2337.00 2215.00 2084.00 1963.00 1987.00 1998.00 1983.00 1981.00 1949.00 1859.00 1748.00 1584.00 1455.00 
1378.00 1288.00 1210.00 1137.00
230.00 229.00 228.00 226.00 224.00 221.00 218.00 215.00 211.00 207.00 203.00 199.00 195.00 190.00 185.00 181.00 176.00 171.00 166.00 161.00 156.00 151.00 145.00 140.00 135.00 129.00 124.00 118.00 112.00 107.00 101.00 96.00 90.00 85.00 80.00 74.00 50.00 
220.00 575.00 790.00 973.00 1091.00 1136.00 1183.00 1273.00 1391.00 1526.00 1638.00 1724.00 1814.00 1912.00 1995.00 2062.00 2133.00 2238.00 2309.00 2308.00 2212.00 2094.00 1984.00 1996.00 1999.00 1990.00 1975.00 1934.00 1841.00 1734.00 1581.00 1460.00 
1380.00 1290.00 1208.00 1137.00
230.00 229.00 228.00 226.00 224.00 221.00 218.00 215.00 211.00 207.00 203.00 199.00 195.00 190.00 185.00 181.00 176.00 171.00 166.00 161.00 156.00 151.00 145.00 140.00 135.00 129.00 124.00 118.00 112.00 107.00 101.00 96.00 90.00 85.00 80.00 74.00 44.00 
227.00 547.00 753.00 911.00 1013.00 1064.00 1130.00 1232.00 1363.00 1496.00 1587.00 1660.00 1743.00 1849.00 1940.00 2011.00 2087.00 2187.00 2258.00 2278.00 2210.00 2104.00 2006.00 2005.00 2000.00 1998.00 1970.00 1919.00 1824.00 1721.00 1579.00 1464.00 
1382.00 1291.00 1206.00 1137.00
230.00 229.00 228.00 226.00 224.00 221.00 218.00 215.00 211.00 207.00 203.00 199.00 195.00 190.00 185.00 181.00 176.00 171.00 166.00 161.00 156.00 151.00 145.00 140.00 135.00 129.00 124.00 118.00 112.00 107.00 101.00 96.00 90.00 85.00 80.00 74.00 39.00 
233.00 519.00 715.00 849.00 935.00 993.00 1078.00 1192.00 1336.00 1465.00 1535.00 1597.00 1671.00 1785.00 1884.00 1959.00 2040.00 2136.00 2207.00 2249.00 2207.00 2114.00 2027.00 2014.00 2000.00 2005.00 1964.00 1903.00 1806.00 1707.00 1576.00 1469.00 
1383.00 1293.00 1203.00 1137.00
230.00 229.00 228.00 226.00 224.00 221.00 218.00 215.00 211.00 207.00 203.00 199.00 195.00 190.00 185.00 181.00 176.00 171.00 166.00 161.00 156.00 151.00 145.00 140.00 135.00 129.00 124.00 118.00 112.00 107.00 101.00 96.00 90.00 85.00 80.00 74.00 33.00 
239.00 491.00 677.00 787.00 857.00 921.00 1025.00 1151.00 1308.00 1435.00 1484.00 1533.00 1600.00 1722.00 1829.00 1908.00 1993.00 2085.00 2156.00 2219.00 2204.00 2124.00 2048.00 2023.00 2001.00 2012.00 1958.00 1888.00 1788.00 1693.00 1573.00 1473.00 
1385.00 1294.00 1201.00 1137.00
230.00 229.00 228.00 226.00 224.00 221.00 218.00 215.00 211.00 207.00 203.00 199.00 195.00 190.00 185.00 181.00 176.00 171.00 166.00 161.00 156.00 151.00 145.00 140.00 135.00 129.00 124.00 118.00 112.00 107.00 101.00 96.00 90.00 85.00 80.00 74.00 29.00 
204.00 429.00 625.00 755.00 835.00 909.00 1007.00 1112.00 1247.00 1353.00 1411.00 1471.00 1549.00 1662.00 1762.00 1831.00 1906.00 1987.00 2052.00 2114.00 2126.00 2085.00 2035.00 2013.00 1995.00 1990.00 1948.00 1888.00 1799.00 1706.00 1592.00 1481.00 
1390.00 1302.00 1205.00 1137.00
230.00 229.00 228.00 226.00 224.00 221.00 218.00 215.00 211.00 207.00 203.00 199.00 195.00 190.00 185.00 181.00 176.00 171.00 166.00 161.00 156.00 151.00 145.00 140.00 135.00 129.00 124.00 118.00 112.00 107.00 101.00 96.00 90.00 85.00 80.00 74.00 25.00 
168.00 366.00 572.00 722.00 812.00 897.00 988.00 1072.00 1185.00 1270.00 1338.00 1408.00 1497.00 1601.00 1695.00 1754.00 1819.00 1888.00 1948.00 2009.00 2047.00 2045.00 2021.00 2003.00 1988.00 1967.00 1938.00 1887.00 1809.00 1719.00 1610.00 1489.00 
1394.00 1310.00 1209.00 1137.00
230.00 229.00 228.00 226.00 224.00 221.00 218.00 215.00 211.00 207.00 203.00 199.00 195.00 190.00 185.00 181.00 176.00 171.00 166.00 161.00 156.00 151.00 145.00 140.00 135.00 129.00 124.00 118.00 112.00 107.00 101.00 96.00 90.00 85.00 80.00 74.00 21.00 
135.00 335.00 542.00 692.00 796.00 888.00 977.00 1051.00 1139.00 1221.00 1293.00 1361.00 1451.00 1551.00 1639.00 1705.00 1774.00 1841.00 1903.00 1962.00 2005.00 2010.00 1993.00 1974.00 1962.00 1947.00 1915.00 1867.00 1795.00 1707.00 1607.00 1495.00 
1399.00 1312.00 1213.00 1137.00
230.00 229.00 228.00 226.00 224.00 221.00 218.00 215.00 211.00 207.00 203.00 199.00 195.00 190.00 185.00 181.00 176.00 171.00 166.00 161.00 156.00 151.00 145.00 140.00 135.00 129.00 124.00 118.00 112.00 107.00 101.00 96.00 90.00 85.00 80.00 74.00 16.00 
102.00 304.00 512.00 661.00 779.00 878.00 966.00 1029.00 1093.00 1171.00 1248.00 1313.00 1405.00 1500.00 1583.00 1656.00 1729.00 1793.00 1858.00 1914.00 1962.00 1974.00 1964.00 1944.00 1936.00 1927.00 1892.00 1847.00 1781.00 1694.00 1603.00 1501.00 
1404.00 1314.00 1216.00 1137.00
230.00 229.00 228.00 226.00 224.00 221.00 218.00 215.00 211.00 207.00 203.00 199.00 195.00 190.00 185.00 181.00 176.00 171.00 166.00 161.00 156.00 151.00 145.00 140.00 135.00 129.00 124.00 118.00 112.00 107.00 101.00 96.00 90.00 85.00 80.00 74.00 14.00 
105.00 294.00 504.00 653.00 773.00 875.00 959.00 1019.00 1078.00 1144.00 1210.00 1274.00 1367.00 1459.00 1539.00 1610.00 1680.00 1743.00 1806.00 1862.00 1904.00 1919.00 1915.00 1911.00 1910.00 1901.00 1868.00 1822.00 1758.00 1677.00 1589.00 1491.00 
1400.00 1310.00 1218.00 1137.00
230.00 229.00 228.00 226.00 224.00 221.00 218.00 215.00 211.00 207.00 203.00 199.00 195.00 190.00 185.00 181.00 176.00 171.00 166.00 161.00 156.00 151.00 145.00 140.00 135.00 129.00 124.00 118.00 112.00 107.00 101.00 96.00 90.00 85.00 80.00 74.00 12.00 
108.00 283.00 496.00 645.00 768.00 872.00 952.00 1008.00 1063.00 1118.00 1173.00 1235.00 1330.00 1418.00 1495.00 1564.00 1632.00 1693.00 1755.00 1810.00 1845.00 1864.00 1865.00 1877.00 1883.00 1875.00 1844.00 1798.00 1735.00 1660.00 1575.00 1482.00 
1395.00 1306.00 1219.00 1137.00
230.00 229.00 228.00 226.00 224.00 221.00 218.00 215.00 211.00 207.00 203.00 199.00 195.00 190.00 185.00 181.00 176.00 171.00 166.00 161.00 156.00 151.00 145.00 140.00 135.00 129.00 124.00 118.00 112.00 107.00 101.00 96.00 90.00 85.00 80.00 74.00 9.00 
110.00 273.00 487.00 637.00 762.00 868.00 945.00 998.00 1048.00 1091.00 1135.00 1196.00 1292.00 1377.00 1451.00 1518.00 1583.00 1643.00 1703.00 1758.00 1787.00 1808.00 1816.00 1844.00 1857.00 1849.00 1819.00 1773.00 1712.00 1642.00 1561.00 1472.00 1391.00
 1302.00 1221.00 1137.00
230.00 229.00 228.00 226.00 224.00 221.00 218.00 215.00 211.00 207.00 203.00 199.00 195.00 190.00 185.00 181.00 176.00 171.00 166.00 161.00 156.00 151.00 145.00 140.00 135.00 129.00 124.00 118.00 112.00 107.00 101.00 96.00 90.00 85.00 80.00 74.00 7.00 
113.00 262.00 479.00 629.00 756.00 865.00 938.00 987.00 1033.00 1064.00 1097.00 1157.00 1254.00 1336.00 1407.00 1472.00 1534.00 1593.00 1651.00 1706.00 1728.00 1753.00 1766.00 1810.00 1830.00 1823.00 1795.00 1748.00 1689.00 1625.00 1547.00 1462.00 1386.00
 1298.00 1222.00 1137.00
230.00 229.00 228.00 226.00 224.00 221.00 218.00 215.00 211.00 207.00 203.00 199.00 195.00 190.00 185.00 181.00 176.00 171.00 166.00 161.00 156.00 151.00 145.00 140.00 135.00 129.00 124.00 118.00 112.00 107.00 101.00 96.00 90.00 85.00 80.00 74.00 9.00 
118.00 280.00 497.00 646.00 773.00 873.00 941.00 991.00 1039.00 1082.00 1126.00 1191.00 1286.00 1377.00 1452.00 1520.00 1584.00 1647.00 1706.00 1758.00 1787.00 1813.00 1825.00 1857.00 1874.00 1865.00 1836.00 1786.00 1717.00 1647.00 1563.00 1474.00 1394.00
 1306.00 1229.00 1137.00
230.00 229.00 228.00 226.00 224.00 221.00 218.00 215.00 211.00 207.00 203.00 199.00 195.00 190.00 185.00 181.00 176.00 171.00 166.00 161.00 156.00 151.00 145.00 140.00 135.00 129.00 124.00 118.00 112.00 107.00 101.00 96.00 90.00 85.00 80.00 74.00 11.00 
124.00 297.00 515.00 663.00 790.00 881.00 944.00 995.00 1046.00 1099.00 1155.00 1225.00 1318.00 1418.00 1497.00 1568.00 1634.00 1701.00 1761.00 1810.00 1845.00 1874.00 1884.00 1904.00 1918.00 1906.00 1877.00 1823.00 1746.00 1668.00 1579.00 1487.00 1403.00
 1314.00 1236.00 1137.00
230.00 229.00 228.00 226.00 224.00 221.00 218.00 215.00 211.00 207.00 203.00 199.00 195.00 190.00 185.00 181.00 176.00 171.00 166.00 161.00 156.00 151.00 145.00 140.00 135.00 129.00 124.00 118.00 112.00 107.00 101.00 96.00 90.00 85.00 80.00 74.00 12.00 
129.00 314.00 532.00 680.00 807.00 888.00 947.00 998.00 1052.00 1116.00 1184.00 1258.00 1350.00 1459.00 1542.00 1615.00 1684.00 1755.00 1815.00 1862.00 1903.00 1934.00 1942.00 1951.00 1962.00 1947.00 1917.00 1860.00 1774.00 1689.00 1594.00 1499.00 1411.00
 1322.00 1243.00 1137.00
230.00 229.00 228.00 226.00 224.00 221.00 218.00 215.00 211.00 207.00 203.00 199.00 195.00 190.00 185.00 181.00 176.00 171.00 166.00 161.00 156.00 151.00 145.00 140.00 135.00 129.00 124.00 118.00 112.00 107.00 101.00 96.00 90.00 85.00 80.00 74.00 14.00 
134.00 332.00 550.00 697.00 824.00 896.00 950.00 1002.00 1058.00 1134.00 1213.00 1292.00 1382.00 1500.00 1587.00 1663.00 1734.00 1809.00 1870.00 1914.00 1962.00 1994.00 2001.00 1998.00 2006.00 1989.00 1958.00 1898.00 1802.00 1711.00 1610.00 1511.00 
1419.00 1330.00 1250.00 1137.00
230.00 229.00 228.00 226.00 224.00 221.00 218.00 215.00 211.00 207.00 203.00 199.00 195.00 190.00 185.00 181.00 176.00 171.00 166.00 161.00 156.00 151.00 145.00 140.00 135.00 129.00 124.00 118.00 112.00 107.00 101.00 96.00 90.00 85.00 80.00 74.00 23.00 
155.00 351.00 574.00 726.00 832.00 900.00 955.00 1024.00 1105.00 1191.00 1270.00 1350.00 1445.00 1558.00 1654.00 1730.00 1789.00 1861.00 1921.00 1967.00 2009.00 2034.00 2033.00 2024.00 2033.00 2020.00 1988.00 1926.00 1826.00 1729.00 1622.00 1511.00 
1414.00 1327.00 1251.00 1137.00
230.00 229.00 228.00 226.00 224.00 221.00 218.00 215.00 211.00 207.00 203.00 199.00 195.00 190.00 185.00 181.00 176.00 171.00 166.00 161.00 156.00 151.00 145.00 140.00 135.00 129.00 124.00 118.00 112.00 107.00 101.00 96.00 90.00 85.00 80.00 74.00 33.00 
177.00 370.00 599.00 755.00 841.00 904.00 960.00 1046.00 1152.00 1248.00 1327.00 1408.00 1509.00 1617.00 1722.00 1797.00 1845.00 1914.00 1973.00 2020.00 2057.00 2074.00 2066.00 2050.00 2060.00 2052.00 2018.00 1954.00 1851.00 1748.00 1634.00 1510.00 
1409.00 1323.00 1252.00 1137.00
230.00 229.00 228.00 226.00 224.00 221.00 218.00 215.00 211.00 207.00 203.00 199.00 195.00 190.00 185.00 181.00 176.00 171.00 166.00 161.00 156.00 151.00 145.00 140.00 135.00 129.00 124.00 118.00 112.00 107.00 101.00 96.00 90.00 85.00 80.00 74.00 37.00 
189.00 377.00 626.00 789.00 857.00 897.00 957.00 1054.00 1170.00 1279.00 1377.00 1480.00 1600.00 1721.00 1825.00 1891.00 1933.00 1993.00 2021.00 2052.00 2080.00 2097.00 2083.00 2063.00 2079.00 2079.00 2035.00 1974.00 1869.00 1761.00 1640.00 1509.00 
1408.00 1321.00 1248.00 1137.00
230.00 229.00 228.00 226.00 224.00 221.00 218.00 215.00 211.00 207.00 203.00 199.00 195.00 190.00 185.00 181.00 176.00 171.00 166.00 161.00 156.00 151.00 145.00 140.00 135.00 129.00 124.00 118.00 112.00 107.00 101.00 96.00 90.00 85.00 80.00 74.00 40.00 
201.00 383.00 653.00 822.00 873.00 890.00 953.00 1061.00 1188.00 1309.00 1427.00 1552.00 1690.00 1825.00 1928.00 1985.00 2020.00 2072.00 2068.00 2084.00 2103.00 2120.00 2099.00 2075.00 2098.00 2105.00 2051.00 1994.00 1887.00 1773.00 1645.00 1507.00 
1407.00 1318.00 1244.00 1137.00
230.00 229.00 228.00 226.00 224.00 221.00 218.00 215.00 211.00 207.00 203.00 199.00 195.00 190.00 185.00 181.00 176.00 171.00 166.00 161.00 156.00 151.00 145.00 140.00 135.00 129.00 124.00 118.00 112.00 107.00 101.00 96.00 90.00 85.00 80.00 74.00 44.00 
204.00 438.00 697.00 875.00 947.00 969.00 1024.00 1124.00 1246.00 1371.00 1493.00 1611.00 1739.00 1863.00 1959.00 2017.00 2060.00 2126.00 2141.00 2147.00 2131.00 2111.00 2065.00 2053.00 2073.00 2075.00 2034.00 1983.00 1880.00 1767.00 1630.00 1494.00 
1400.00 1311.00 1236.00 1137.00
230.00 229.00 228.00 226.00 224.00 221.00 218.00 215.00 211.00 207.00 203.00 199.00 195.00 190.00 185.00 181.00 176.00 171.00 166.00 161.00 156.00 151.00 145.00 140.00 135.00 129.00 124.00 118.00 112.00 107.00 101.00 96.00 90.00 85.00 80.00 74.00 48.00 
208.00 493.00 741.00 929.00 1021.00 1049.00 1094.00 1187.00 1303.00 1433.00 1558.00 1670.00 1788.00 1900.00 1989.00 2049.00 2100.00 2181.00 2214.00 2211.00 2159.00 2102.00 2031.00 2031.00 2048.00 2044.00 2016.00 1972.00 1873.00 1761.00 1615.00 1481.00 
1393.00 1303.00 1227.00 1137.00
230.00 229.00 228.00 226.00 224.00 221.00 218.00 215.00 211.00 207.00 203.00 199.00 195.00 190.00 185.00 181.00 176.00 171.00 166.00 161.00 156.00 151.00 145.00 140.00 135.00 129.00 124.00 118.00 112.00 107.00 101.00 96.00 90.00 85.00 80.00 74.00 51.00 
211.00 548.00 784.00 982.00 1095.00 1128.00 1165.00 1250.00 1361.00 1494.00 1624.00 1728.00 1836.00 1938.00 2020.00 2081.00 2140.00 2235.00 2287.00 2274.00 2187.00 2093.00 1997.00 2009.00 2023.00 2013.00 1998.00 1960.00 1866.00 1754.00 1599.00 1468.00 
1385.00 1295.00 1218.00 1137.00
230.00 229.00 228.00 226.00 224.00 221.00 218.00 215.00 211.00 207.00 203.00 199.00 195.00 190.00 185.00 181.00 176.00 171.00 166.00 161.00 156.00 151.00 145.00 140.00 135.00 129.00 124.00 118.00 112.00 107.00 101.00 96.00 90.00 85.00 80.00 74.00 55.00 
214.00 603.00 828.00 1035.00 1169.00 1207.00 1235.00 1313.00 1418.00 1556.00 1689.00 1787.00 1885.00 1975.00 2050.00 2113.00 2180.00 2289.00 2360.00 2337.00 2215.00 2084.00 1963.00 1987.00 1998.00 1983.00 1981.00 1949.00 1859.00 1748.00 1584.00 1455.00 
1378.00 1288.00 1210.00 1137.00
230.00 229.00 228.00 226.00 224.00 221.00 218.00 215.00 211.00 207.00 203.00 199.00 195.00 190.00 185.00 181.00 176.00 171.00 166.00 161.00 156.00 151.00 145.00 140.00 135.00 129.00 124.00 118.00 112.00 107.00 101.00 96.00 90.00 85.00 80.00 74.00 50.00 
220.00 575.00 790.00 973.00 1091.00 1136.00 1183.00 1273.00 1391.00 1526.00 1638.00 1724.00 1814.00 1912.00 1995.00 2062.00 2133.00 2238.00 2309.00 2308.00 2212.00 2094.00 1984.00 1996.00 1999.00 1990.00 1975.00 1934.00 1841.00 1734.00 1581.00 1460.00 
1380.00 1290.00 1208.00 1137.00
230.00 229.00 228.00 226.00 224.00 221.00 218.00 215.00 211.00 207.00 203.00 199.00 195.00 190.00 185.00 181.00 176.00 171.00 166.00 161.00 156.00 151.00 145.00 140.00 135.00 129.00 124.00 118.00 112.00 107.00 101.00 96.00 90.00 85.00 80.00 74.00 44.00 
227.00 547.00 753.00 911.00 1013.00 1064.00 1130.00 1232.00 1363.00 1496.00 1587.00 1660.00 1743.00 1849.00 1940.00 2011.00 2087.00 2187.00 2258.00 2278.00 2210.00 2104.00 2006.00 2005.00 2000.00 1998.00 1970.00 1919.00 1824.00 1721.00 1579.00 1464.00 
1382.00 1291.00 1206.00 1137.00
230.00 229.00 228.00 226.00 224.00 221.00 218.00 215.00 211.00 207.00 203.00 199.00 195.00 190.00 185.00 181.00 176.00 171.00 166.00 161.00 156.00 151.00 145.00 140.00 135.00 129.00 124.00 118.00 112.00 107.00 101.00 96.00 90.00 85.00 80.00 74.00 39.00 
233.00 519.00 715.00 849.00 935.00 993.00 1078.00 1192.00 1336.00 1465.00 1535.00 1597.00 1671.00 1785.00 1884.00 1959.00 2040.00 2136.00 2207.00 2249.00 2207.00 2114.00 2027.00 2014.00 2000.00 2005.00 1964.00 1903.00 1806.00 1707.00 1576.00 1469.00 
1383.00 1293.00 1203.00 1137.00
230.00 229.00 228.00 226.00 224.00 221.00 218.00 215.00 211.00 207.00 203.00 199.00 195.00 190.00 185.00 181.00 176.00 171.00 166.00 161.00 156.00 151.00 145.00 140.00 135.00 129.00 124.00 118.00 112.00 107.00 101.00 96.00 90.00 85.00 80.00 74.00 33.00 
239.00 491.00 677.00 787.00 857.00 921.00 1025.00 1151.00 1308.00 1435.00 1484.00 1533.00 1600.00 1722.00 1829.00 1908.00 1993.00 2085.00 2156.00 2219.00 2204.00 2124.00 2048.00 2023.00 2001.00 2012.00 1958.00 1888.00 1788.00 1693.00 1573.00 1473.00 
1385.00 1294.00 1201.00 1137.00
230.00 229.00 228.00 226.00 224.00 221.00 218.00 215.00 211.00 207.00 203.00 199.00 195.00 190.00 185.00 181.00 176.00 171.00 166.00 161.00 156.00 151.00 145.00 140.00 135.00 129.00 124.00 118.00 112.00 107.00 101.00 96.00 90.00 85.00 80.00 74.00 29.00 
204.00 429.00 625.00 755.00 835.00 909.00 1007.00 1112.00 1247.00 1353.00 1411.00 1471.00 1549.00 1662.00 1762.00 1831.00 1906.00 1987.00 2052.00 2114.00 2126.00 2085.00 2035.00 2013.00 1995.00 1990.00 1948.00 1888.00 1799.00 1706.00 1592.00 1481.00 
1390.00 1302.00 1205.00 1137.00
230.00 229.00 228.00 226.00 224.00 221.00 218.00 215.00 211.00 207.00 203.00 199.00 195.00 190.00 185.00 181.00 176.00 171.00 166.00 161.00 156.00 151.00 145.00 140.00 135.00 129.00 124.00 118.00 112.00 107.00 101.00 96.00 90.00 85.00 80.00 74.00 25.00 
168.00 366.00 572.00 722.00 812.00 897.00 988.00 1072.00 1185.00 1270.00 1338.00 1408.00 1497.00 1601.00 1695.00 1754.00 1819.00 1888.00 1948.00 2009.00 2047.00 2045.00 2021.00 2003.00 1988.00 1967.00 1938.00 1887.00 1809.00 1719.00 1610.00 1489.00 
1394.00 1310.00 1209.00 1137.00
230.00 229.00 228.00 226.00 224.00 221.00 218.00 215.00 211.00 207.00 203.00 199.00 195.00 190.00 185.00 181.00 176.00 171.00 166.00 161.00 156.00 151.00 145.00 140.00 135.00 129.00 124.00 118.00 112.00 107.00 101.00 96.00 90.00 85.00 80.00 74.00 21.00 
135.00 335.00 542.00 692.00 796.00 888.00 977.00 1051.00 1139.00 1221.00 1293.00 1361.00 1451.00 1551.00 1639.00 1705.00 1774.00 1841.00 1903.00 1962.00 2005.00 2010.00 1993.00 1974.00 1962.00 1947.00 1915.00 1867.00 1795.00 1707.00 1607.00 1495.00 
1399.00 1312.00 1213.00 1137.00
230.00 229.00 228.00 226.00 224.00 221.00 218.00 215.00 211.00 207.00 203.00 199.00 195.00 190.00 185.00 181.00 176.00 171.00 166.00 161.00 156.00 151.00 145.00 140.00 135.00 129.00 124.00 118.00 112.00 107.00 101.00 96.00 90.00 85.00 80.00 74.00 16.00 
102.00 304.00 512.00 661.00 779.00 878.00 966.00 1029.00 1093.00 1171.00 1248.00 1313.00 1405.00 1500.00 1583.00 1656.00 1729.00 1793.00 1858.00 1914.00 1962.00 1974.00 1964.00 1944.00 1936.00 1927.00 1892.00 1847.00 1781.00 1694.00 1603.00 1501.00 
1404.00 1314.00 1216.00 1137.00
230.00 229.00 228.00 226.00 224.00 221.00 218.00 215.00 211.00 207.00 203.00 199.00 195.00 190.00 185.00 181.00 176.00 171.00 166.00 161.00 156.00 151.00 145.00 140.00 135.00 129.00 124.00 118.00 112.00 107.00 101.00 96.00 90.00 85.00 80.00 74.00 14.00 
105.00 294.00 504.00 653.00 773.00 875.00 959.00 1019.00 1078.00 1144.00 1210.00 1274.00 1367.00 1459.00 1539.00 1610.00 1680.00 1743.00 1806.00 1862.00 1904.00 1919.00 1915.00 1911.00 1910.00 1901.00 1868.00 1822.00 1758.00 1677.00 1589.00 1491.00 
1400.00 1310.00 1217.00 1137.00
230.00 229.00 228.00 226.00 224.00 221.00 218.00 215.00 211.00 207.00 203.00 199.00 195.00 190.00 185.00 181.00 176.00 171.00 166.00 161.00 156.00 151.00 145.00 140.00 135.00 129.00 124.00 118.00 112.00 107.00 101.00 96.00 90.00 85.00 80.00 74.00 12.00 
107.00 283.00 496.00 645.00 768.00 872.00 952.00 1008.00 1063.00 1118.00 1173.00 1235.00 1330.00 1418.00 1495.00 1564.00 1632.00 1693.00 1755.00 1810.00 1845.00 1864.00 1865.00 1877.00 1883.00 1875.00 1844.00 1798.00 1735.00 1660.00 1575.00 1482.00 
1395.00 1306.00 1219.00 1137.00
230.00 229.00 228.00 226.00 224.00 221.00 218.00 215.00 211.00 207.00 203.00 199.00 195.00 190.00 185.00 181.00 176.00 171.00 166.00 161.00 156.00 151.00 145.00 140.00 135.00 129.00 124.00 118.00 112.00 107.00 101.00 96.00 90.00 85.00 80.00 74.00 9.00 
110.00 272.00 487.00 637.00 762.00 868.00 945.00 997.00 1048.00 1091.00 1135.00 1196.00 1292.00 1377.00 1451.00 1518.00 1583.00 1643.00 1703.00 1758.00 1786.00 1808.00 1815.00 1843.00 1856.00 1849.00 1819.00 1773.00 1712.00 1642.00 1561.00 1472.00 1390.00
 1302.00 1221.00 1137.00
230.00 229.00 228.00 226.00 224.00 221.00 218.00 215.00 211.00 207.00 203.00 199.00 195.00 190.00 185.00 181.00 176.00 171.00 166.00 161.00 156.00 151.00 145.00 140.00 135.00 129.00 124.00 118.00 112.00 107.00 101.00 96.00 90.00 85.00 80.00 74.00 7.00 
113.00 262.00 479.00 629.00 756.00 865.00 938.00 987.00 1033.00 1064.00 1097.00 1157.00 1254.00 1336.00 1407.00 1472.00 1534.00 1593.00 1651.00 1706.00 1728.00 1753.00 1766.00 1810.00 1830.00 1823.00 1795.00 1748.00 1689.00 1625.00 1547.00 1462.00 1386.00
 1298.00 1222.00 1137.00
