IESNA:LM-63-2002
[TEST]253P273
[TESTLAB]METALUX LABORITORIES
[ISSUEDATE]02/05/08
[MANUFAC]COOPER LIGHTING - SHAPER
[LUMCAT]1220-XX-26-CFL/3/32-T5C/1/22
[LUMINAIRE]SHAPER 26 INCH 1220 SERIES DIRECT/INDIRECT INDOOR PENDANT FIXTURE 
[MORE]WITH DEEP DIFFUSING BOWL
[LAMP]THREE 32 WATT PLT COMPACT FLOURESCENTS AND ONE 22 WATTS CIRCLINE
[MORE](3)CF32DT/E/IN841 - 2400 LUMENS AND (1) TL5C22/830 - 1800 LUMENS
[OTHER]PRORATED FROM TEST NO: 253P273
TILT=NONE
1 9000 1 73 37 1 1 -1.708333 -1.708333 0.8125
1 1 24
0 2.5 5 7.5 10 12.5 15 17.5 20 22.5
25 27.5 30 32.5 35 37.5 40 42.5 45 47.5
50 52.5 55 57.5 60 62.5 65 67.5 70 72.5
75 77.5 80 82.5 85 87.5 90 92.5 95 97.5
100 102.5 105 107.5 110 112.5 115 117.5 120 122.5
125 127.5 130 132.5 135 137.5 140 142.5 145 147.5
150 152.5 155 157.5 160 162.5 165 167.5 170 172.5
175 177.5 180
0 5 10 15 20 25 30 35 40 45
50 55 60 65 70 75 80 85 90 95
100 105 110 115 120 125 130 135 140 145
150 155 160 165 170 175 180
230 229 228 226 224 221 218 215 211 207
203 199 195 190 185 181 176 171 166 161
156 151 145 140 135 129 124 118 112 107
101 96 90 85 80 74 55 160.5 452.2 621
776.2 876.8 905.2 926.2 984.8 1063.5 1167 1266.8 1340.2 1413.8
1481.2 1537.5 1584.8 1635 1716.8 1770 1752.8 1661.2 1563 1472.2
1490.2 1498.5 1487.2 1485.8 1461.8 1394.2 1311 1188 1091.2 1033.5
966 907.5 852.8
230 229 228 226 224 221 218 215 211 207
203 199 195 190 185 181 176 171 166 161
156 151 145 140 135 129 124 118 112 107
101 96 90 85 80 74 50 165 431.2 592.5
729.8 818.2 852 887.2 954.8 1043.2 1144.5 1228.5 1293 1360.5
1434 1496.2 1546.5 1599.8 1678.5 1731.8 1731 1659 1570.5 1488
1497 1499.2 1492.5 1481.2 1450.5 1380.8 1300.5 1185.8 1095 1035
967.5 906 852.8
230 229 228 226 224 221 218 215 211 207
203 199 195 190 185 181 176 171 166 161
156 151 145 140 135 129 124 118 112 107
101 96 90 85 80 74 44 170.2 410.2 564.8
683.2 759.8 798 847.5 924 1022.2 1122 1190.2 1245 1307.2
1386.8 1455 1508.2 1565.2 1640.2 1693.5 1708.5 1657.5 1578 1504.5
1503.8 1500 1498.5 1477.5 1439.2 1368 1290.8 1184.2 1098 1036.5
968.2 904.5 852.8
230 229 228 226 224 221 218 215 211 207
203 199 195 190 185 181 176 171 166 161
156 151 145 140 135 129 124 118 112 107
101 96 90 85 80 74 39 174.8 389.2 536.2
636.8 701.2 744.8 808.5 894 1002 1098.8 1151.2 1197.8 1253.2
1338.8 1413 1469.2 1530 1602 1655.2 1686.8 1655.2 1585.5 1520.2
1510.5 1500 1503.8 1473 1427.2 1354.5 1280.2 1182 1101.8 1037.2
969.8 902.2 852.8
230 229 228 226 224 221 218 215 211 207
203 199 195 190 185 181 176 171 166 161
156 151 145 140 135 129 124 118 112 107
101 96 90 85 80 74 33 179.2 368.2 507.8
590.2 642.8 690.8 768.8 863.2 981 1076.2 1113 1149.8 1200
1291.5 1371.8 1431 1494.8 1563.8 1617 1664.2 1653 1593 1536
1517.2 1500.8 1509 1468.5 1416 1341 1269.8 1179.8 1104.8 1038.8
970.5 900.8 852.8
230 229 228 226 224 221 218 215 211 207
203 199 195 190 185 181 176 171 166 161
156 151 145 140 135 129 124 118 112 107
101 96 90 85 80 74 29 153 321.8 468.8
566.2 626.2 681.8 755.2 834 935.2 1014.8 1058.2 1103.2 1161.8
1246.5 1321.5 1373.2 1429.5 1490.2 1539 1585.5 1594.5 1563.8 1526.2
1509.8 1496.2 1492.5 1461 1416 1349.2 1279.5 1194 1110.8 1042.5
976.5 903.8 852.8
230 229 228 226 224 221 218 215 211 207
203 199 195 190 185 181 176 171 166 161
156 151 145 140 135 129 124 118 112 107
101 96 90 85 80 74 25 126 274.5 429
541.5 609 672.8 741 804 888.8 952.5 1003.5 1056 1122.8
1200.8 1271.2 1315.5 1364.2 1416 1461 1506.8 1535.2 1533.8 1515.8
1502.2 1491 1475.2 1453.5 1415.2 1356.8 1289.2 1207.5 1116.8 1045.5
982.5 906.8 852.8
230 229 228 226 224 221 218 215 211 207
203 199 195 190 185 181 176 171 166 161
156 151 145 140 135 129 124 118 112 107
101 96 90 85 80 74 21 101.2 251.2 406.5
519 597 666 732.8 788.2 854.2 915.8 969.8 1020.8 1088.2
1163.2 1229.2 1278.8 1330.5 1380.8 1427.2 1471.5 1503.8 1507.5 1494.8
1480.5 1471.5 1460.2 1436.2 1400.2 1346.2 1280.2 1205.2 1121.2 1049.2
984 909.8 852.8
230 229 228 226 224 221 218 215 211 207
203 199 195 190 185 181 176 171 166 161
156 151 145 140 135 129 124 118 112 107
101 96 90 85 80 74 16 76.5 228 384
495.8 584.2 658.5 724.5 771.8 819.8 878.2 936 984.8 1053.8
1125 1187.2 1242 1296.8 1344.8 1393.5 1435.5 1471.5 1480.5 1473
1458 1452 1445.2 1419 1385.2 1335.8 1270.5 1202.2 1125.8 1053
985.5 912 852.8
230 229 228 226 224 221 218 215 211 207
203 199 195 190 185 181 176 171 166 161
156 151 145 140 135 129 124 118 112 107
101 96 90 85 80 74 14 78.8 220.5 378
489.8 579.8 656.2 719.2 764.2 808.5 858 907.5 955.5 1025.2
1094.2 1154.2 1207.5 1260 1307.2 1354.5 1396.5 1428 1439.2 1436.2
1433.2 1432.5 1425.8 1401 1366.5 1318.5 1257.8 1191.8 1118.2 1050
982.5 913.5 852.8
230 229 228 226 224 221 218 215 211 207
203 199 195 190 185 181 176 171 166 161
156 151 145 140 135 129 124 118 112 107
101 96 90 85 80 74 12 81 212.2 372
483.8 576 654 714 756 797.2 838.5 879.8 926.2 997.5
1063.5 1121.2 1173 1224 1269.8 1316.2 1357.5 1383.8 1398 1398.8
1407.8 1412.2 1406.2 1383 1348.5 1301.2 1245 1181.2 1111.5 1046.2
979.5 914.2 852.8
230 229 228 226 224 221 218 215 211 207
203 199 195 190 185 181 176 171 166 161
156 151 145 140 135 129 124 118 112 107
101 96 90 85 80 74 9 82.5 204.8 365.2
477.8 571.5 651 708.8 748.5 786 818.2 851.2 897 969
1032.8 1088.2 1138.5 1187.2 1232.2 1277.2 1318.5 1340.2 1356 1362
1383 1392.8 1386.8 1364.2 1329.8 1284 1231.5 1170.8 1104 1043.2
976.5 915.8 852.8
230 229 228 226 224 221 218 215 211 207
203 199 195 190 185 181 176 171 166 161
156 151 145 140 135 129 124 118 112 107
101 96 90 85 80 74 7 84.8 196.5 359.2
471.8 567 648.8 703.5 740.2 774.8 798 822.8 867.8 940.5
1002 1055.2 1104 1150.5 1194.8 1238.2 1279.5 1296 1314.8 1324.5
1357.5 1372.5 1367.2 1346.2 1311 1266.8 1218.8 1160.2 1096.5 1039.5
973.5 916.5 852.8
230 229 228 226 224 221 218 215 211 207
203 199 195 190 185 181 176 171 166 161
156 151 145 140 135 129 124 118 112 107
101 96 90 85 80 74 9 88.5 210 372.8
484.5 579.8 654.8 705.8 743.2 779.2 811.5 844.5 893.2 964.5
1032.8 1089 1140 1188 1235.2 1279.5 1318.5 1340.2 1359.8 1368.8
1392.8 1405.5 1398.8 1377 1339.5 1287.8 1235.2 1172.2 1105.5 1045.5
979.5 921.8 852.8
230 229 228 226 224 221 218 215 211 207
203 199 195 190 185 181 176 171 166 161
156 151 145 140 135 129 124 118 112 107
101 96 90 85 80 74 11 93 222.8 386.2
497.2 592.5 660.8 708 746.2 784.5 824.2 866.2 918.8 988.5
1063.5 1122.8 1176 1225.5 1275.8 1320.8 1357.5 1383.8 1405.5 1413
1428 1438.5 1429.5 1407.8 1367.2 1309.5 1251 1184.2 1115.2 1052.2
985.5 927 852.8
230 229 228 226 224 221 218 215 211 207
203 199 195 190 185 181 176 171 166 161
156 151 145 140 135 129 124 118 112 107
101 96 90 85 80 74 12 96.8 235.5 399
510 605.2 666 710.2 748.5 789 837 888 943.5 1012.5
1094.2 1156.5 1211.2 1263 1316.2 1361.2 1396.5 1427.2 1450.5 1456.5
1463.2 1471.5 1460.2 1437.8 1395 1330.5 1266.8 1195.5 1124.2 1058.2
991.5 932.2 852.8
230 229 228 226 224 221 218 215 211 207
203 199 195 190 185 181 176 171 166 161
156 151 145 140 135 129 124 118 112 107
101 96 90 85 80 74 14 100.5 249 412.5
522.8 618 672 712.5 751.5 793.5 850.5 909.8 969 1036.5
1125 1190.2 1247.2 1300.5 1356.8 1402.5 1435.5 1471.5 1495.5 1500.8
1498.5 1504.5 1491.8 1468.5 1423.5 1351.5 1283.2 1207.5 1133.2 1064.2
997.5 937.5 852.8
230 229 228 226 224 221 218 215 211 207
203 199 195 190 185 181 176 171 166 161
156 151 145 140 135 129 124 118 112 107
101 96 90 85 80 74 23 116.2 263.2 430.5
544.5 624 675 716.2 768 828.8 893.2 952.5 1012.5 1083.8
1168.5 1240.5 1297.5 1341.8 1395.8 1440.8 1475.2 1506.8 1525.5 1524.8
1518 1524.8 1515 1491 1444.5 1369.5 1296.8 1216.5 1133.2 1060.5
995.2 938.2 852.8
230 229 228 226 224 221 218 215 211 207
203 199 195 190 185 181 176 171 166 161
156 151 145 140 135 129 124 118 112 107
101 96 90 85 80 74 33 132.8 277.5 449.2
566.2 630.8 678 720 784.5 864 936 995.2 1056 1131.8
1212.8 1291.5 1347.8 1383.8 1435.5 1479.8 1515 1542.8 1555.5 1549.5
1537.5 1545 1539 1513.5 1465.5 1388.2 1311 1225.5 1132.5 1056.8
992.2 939 852.8
230 229 228 226 224 221 218 215 211 207
203 199 195 190 185 181 176 171 166 161
156 151 145 140 135 129 124 118 112 107
101 96 90 85 80 74 37 141.8 282.8 469.5
591.8 642.8 672.8 717.8 790.5 877.5 959.2 1032.8 1110 1200
1290.8 1368.8 1418.2 1449.8 1494.8 1515.8 1539 1560 1572.8 1562.2
1547.2 1559.2 1559.2 1526.2 1480.5 1401.8 1320.8 1230 1131.8 1056
990.8 936 852.8
230 229 228 226 224 221 218 215 211 207
203 199 195 190 185 181 176 171 166 161
156 151 145 140 135 129 124 118 112 107
101 96 90 85 80 74 40 150.8 287.2 489.8
616.5 654.8 667.5 714.8 795.8 891 981.8 1070.2 1164 1267.5
1368.8 1446 1488.8 1515 1554 1551 1563 1577.2 1590 1574.2
1556.2 1573.5 1578.8 1538.2 1495.5 1415.2 1329.8 1233.8 1130.2 1055.2
988.5 933 852.8
230 229 228 226 224 221 218 215 211 207
203 199 195 190 185 181 176 171 166 161
156 151 145 140 135 129 124 118 112 107
101 96 90 85 80 74 44 153 328.5 522.8
656.2 710.2 726.8 768 843 934.5 1028.2 1119.8 1208.2 1304.2
1397.2 1469.2 1512.8 1545 1594.5 1605.8 1610.2 1598.2 1583.2 1548.8
1539.8 1554.8 1556.2 1525.5 1487.2 1410 1325.2 1222.5 1120.5 1050
983.2 927 852.8
230 229 228 226 224 221 218 215 211 207
203 199 195 190 185 181 176 171 166 161
156 151 145 140 135 129 124 118 112 107
101 96 90 85 80 74 48 156 369.8 555.8
696.8 765.8 786.8 820.5 890.2 977.2 1074.8 1168.5 1252.5 1341
1425 1491.8 1536.8 1575 1635.8 1660.5 1658.2 1619.2 1576.5 1523.2
1523.2 1536 1533 1512 1479 1404.8 1320.8 1211.2 1110.8 1044.8
977.2 920.2 852.8
230 229 228 226 224 221 218 215 211 207
203 199 195 190 185 181 176 171 166 161
156 151 145 140 135 129 124 118 112 107
101 96 90 85 80 74 51 158.2 411 588
736.5 821.2 846 873.8 937.5 1020.8 1120.5 1218 1296 1377
1453.5 1515 1560.8 1605 1676.2 1715.2 1705.5 1640.2 1569.8 1497.8
1506.8 1517.2 1509.8 1498.5 1470 1399.5 1315.5 1199.2 1101 1038.8
971.2 913.5 852.8
230 229 228 226 224 221 218 215 211 207
203 199 195 190 185 181 176 171 166 161
156 151 145 140 135 129 124 118 112 107
101 96 90 85 80 74 55 160.5 452.2 621
776.2 876.8 905.2 926.2 984.8 1063.5 1167 1266.8 1340.2 1413.8
1481.2 1537.5 1584.8 1635 1716.8 1770 1752.8 1661.2 1563 1472.2
1490.2 1498.5 1487.2 1485.8 1461.8 1394.2 1311 1188 1091.2 1033.5
966 907.5 852.8
230 229 228 226 224 221 218 215 211 207
203 199 195 190 185 181 176 171 166 161
156 151 145 140 135 129 124 118 112 107
101 96 90 85 80 74 50 165 431.2 592.5
729.8 818.2 852 887.2 954.8 1043.2 1144.5 1228.5 1293 1360.5
1434 1496.2 1546.5 1599.8 1678.5 1731.8 1731 1659 1570.5 1488
1497 1499.2 1492.5 1481.2 1450.5 1380.8 1300.5 1185.8 1095 1035
967.5 906 852.8
230 229 228 226 224 221 218 215 211 207
203 199 195 190 185 181 176 171 166 161
156 151 145 140 135 129 124 118 112 107
101 96 90 85 80 74 44 170.2 410.2 564.8
683.2 759.8 798 847.5 924 1022.2 1122 1190.2 1245 1307.2
1386.8 1455 1508.2 1565.2 1640.2 1693.5 1708.5 1657.5 1578 1504.5
1503.8 1500 1498.5 1477.5 1439.2 1368 1290.8 1184.2 1098 1036.5
968.2 904.5 852.8
230 229 228 226 224 221 218 215 211 207
203 199 195 190 185 181 176 171 166 161
156 151 145 140 135 129 124 118 112 107
101 96 90 85 80 74 39 174.8 389.2 536.2
636.8 701.2 744.8 808.5 894 1002 1098.8 1151.2 1197.8 1253.2
1338.8 1413 1469.2 1530 1602 1655.2 1686.8 1655.2 1585.5 1520.2
1510.5 1500 1503.8 1473 1427.2 1354.5 1280.2 1182 1101.8 1037.2
969.8 902.2 852.8
230 229 228 226 224 221 218 215 211 207
203 199 195 190 185 181 176 171 166 161
156 151 145 140 135 129 124 118 112 107
101 96 90 85 80 74 33 179.2 368.2 507.8
590.2 642.8 690.8 768.8 863.2 981 1076.2 1113 1149.8 1200
1291.5 1371.8 1431 1494.8 1563.8 1617 1664.2 1653 1593 1536
1517.2 1500.8 1509 1468.5 1416 1341 1269.8 1179.8 1104.8 1038.8
970.5 900.8 852.8
230 229 228 226 224 221 218 215 211 207
203 199 195 190 185 181 176 171 166 161
156 151 145 140 135 129 124 118 112 107
101 96 90 85 80 74 29 153 321.8 468.8
566.2 626.2 681.8 755.2 834 935.2 1014.8 1058.2 1103.2 1161.8
1246.5 1321.5 1373.2 1429.5 1490.2 1539 1585.5 1594.5 1563.8 1526.2
1509.8 1496.2 1492.5 1461 1416 1349.2 1279.5 1194 1110.8 1042.5
976.5 903.8 852.8
230 229 228 226 224 221 218 215 211 207
203 199 195 190 185 181 176 171 166 161
156 151 145 140 135 129 124 118 112 107
101 96 90 85 80 74 25 126 274.5 429
541.5 609 672.8 741 804 888.8 952.5 1003.5 1056 1122.8
1200.8 1271.2 1315.5 1364.2 1416 1461 1506.8 1535.2 1533.8 1515.8
1502.2 1491 1475.2 1453.5 1415.2 1356.8 1289.2 1207.5 1116.8 1045.5
982.5 906.8 852.8
230 229 228 226 224 221 218 215 211 207
203 199 195 190 185 181 176 171 166 161
156 151 145 140 135 129 124 118 112 107
101 96 90 85 80 74 21 101.2 251.2 406.5
519 597 666 732.8 788.2 854.2 915.8 969.8 1020.8 1088.2
1163.2 1229.2 1278.8 1330.5 1380.8 1427.2 1471.5 1503.8 1507.5 1494.8
1480.5 1471.5 1460.2 1436.2 1400.2 1346.2 1280.2 1205.2 1121.2 1049.2
984 909.8 852.8
230 229 228 226 224 221 218 215 211 207
203 199 195 190 185 181 176 171 166 161
156 151 145 140 135 129 124 118 112 107
101 96 90 85 80 74 16 76.5 228 384
495.8 584.2 658.5 724.5 771.8 819.8 878.2 936 984.8 1053.8
1125 1187.2 1242 1296.8 1344.8 1393.5 1435.5 1471.5 1480.5 1473
1458 1452 1445.2 1419 1385.2 1335.8 1270.5 1202.2 1125.8 1053
985.5 912 852.8
230 229 228 226 224 221 218 215 211 207
203 199 195 190 185 181 176 171 166 161
156 151 145 140 135 129 124 118 112 107
101 96 90 85 80 74 14 78.8 220.5 378
489.8 579.8 656.2 719.2 764.2 808.5 858 907.5 955.5 1025.2
1094.2 1154.2 1207.5 1260 1307.2 1354.5 1396.5 1428 1439.2 1436.2
1433.2 1432.5 1425.8 1401 1366.5 1318.5 1257.8 1191.8 1118.2 1050
982.5 912.8 852.8
230 229 228 226 224 221 218 215 211 207
203 199 195 190 185 181 176 171 166 161
156 151 145 140 135 129 124 118 112 107
101 96 90 85 80 74 12 80.2 212.2 372
483.8 576 654 714 756 797.2 838.5 879.8 926.2 997.5
1063.5 1121.2 1173 1224 1269.8 1316.2 1357.5 1383.8 1398 1398.8
1407.8 1412.2 1406.2 1383 1348.5 1301.2 1245 1181.2 1111.5 1046.2
979.5 914.2 852.8
230 229 228 226 224 221 218 215 211 207
203 199 195 190 185 181 176 171 166 161
156 151 145 140 135 129 124 118 112 107
101 96 90 85 80 74 9 82.5 204 365.2
477.8 571.5 651 708.8 747.8 786 818.2 851.2 897 969
1032.8 1088.2 1138.5 1187.2 1232.2 1277.2 1318.5 1339.5 1356 1361.2
1382.2 1392 1386.8 1364.2 1329.8 1284 1231.5 1170.8 1104 1042.5
976.5 915.8 852.8
230 229 228 226 224 221 218 215 211 207
203 199 195 190 185 181 176 171 166 161
156 151 145 140 135 129 124 118 112 107
101 96 90 85 80 74 7 84.8 196.5 359.2
471.8 567 648.8 703.5 740.2 774.8 798 822.8 867.8 940.5
1002 1055.2 1104 1150.5 1194.8 1238.2 1279.5 1296 1314.8 1324.5
1357.5 1372.5 1367.2 1346.2 1311 1266.8 1218.8 1160.2 1096.5 1039.5
973.5 916.5 852.8
