IESNA:LM-63-2002
[TEST]253P349
[TESTLAB]METALUX LABORATORIES
[ISSUEDATE]05/12/08
[MANUFAC]COOPER LIGHTING - SHAPER
[LUMCAT]1220-XX-44-CFL/4/27-T5C/1/40
[LUMINAIRE]SHAPER 44 INCH 1220 SERIES DIRECT/INDIRECT INDOOR PENDANT FIXTURE
[MORE]WITH DEEP DIFFUSING BOWL AND 6" APERTURE
[LAMP]FOUR 24 WATT BIAX COMPACT FLUORESCENT LAMPS AND ONE 40 WATT T5 CIRCLINE
[MORE](4)F24BX - 1800 LUMENS AND (1)TL5C40W/830 - 3300 LUMENS
[OTHER]PRORATED FROM TEST NO: 253P349
TILT=NONE
1 10500 1 73 19 1 1 -3.666667 -3.666667 1.333333
1 1 43
0 2.5 5 7.5 10 12.5 15 17.5 20 22.5
25 27.5 30 32.5 35 37.5 40 42.5 45 47.5
50 52.5 55 57.5 60 62.5 65 67.5 70 72.5
75 77.5 80 82.5 85 87.5 90 92.5 95 97.5
100 102.5 105 107.5 110 112.5 115 117.5 120 122.5
125 127.5 130 132.5 135 137.5 140 142.5 145 147.5
150 152.5 155 157.5 160 162.5 165 167.5 170 172.5
175 177.5 180
0 5 10 15 20 25 30 35 40 45
50 55 60 65 70 75 80 85 90
332 332 331 330 328 326 322 319 314 309
304 298 292 286 280 273 266 259 252 244
236 229 220 212 204 196 187 179 170 162
154 145 137 128 120 112 3 168.6 396.6 570.9
667.4 718.9 812.6 947.4 1094.3 1218.3 1384.6 1567.4 1673.1 1758.9
1811.4 1853.1 1877.1 1870.9 1849.7 1804 1769.7 1708 1669.7 1642.9
1604 1548.6 1432 1282.9 1129.1 983.4 848 746.3 675.4 614.9
568.6 550.3 532.6
332 332 331 330 328 326 322 319 314 309
304 298 292 286 280 273 266 259 252 244
236 229 220 212 204 196 187 179 170 162
154 145 137 128 120 112 4 150.9 373.1 552.6
669.1 744 851.4 1000.6 1146.3 1269.1 1431.4 1600.6 1700 1782.3
1835.4 1874.9 1892.6 1881.7 1854.3 1810.3 1768.6 1708.6 1673.1 1642.9
1601.7 1537.1 1414.3 1264.6 1113.1 969.1 838.3 740.6 671.4 612.6
566.9 546.9 532.6
332 332 331 330 328 326 322 319 314 309
304 298 292 286 280 273 266 259 252 244
236 229 220 212 204 196 187 179 170 162
154 145 137 128 120 112 4 133.1 349.1 534.3
670.3 769.1 890.9 1053.7 1197.7 1319.4 1478.9 1633.7 1726.9 1805.7
1859.4 1896 1908 1893.1 1859.4 1816 1767.4 1708.6 1676.6 1642.9
1599.4 1525.7 1397.1 1246.3 1096.6 954.3 828 734.9 667.4 609.7
564.6 542.9 532.6
332 332 331 330 328 326 322 319 314 309
304 298 292 286 280 273 266 259 252 244
236 229 220 212 204 196 187 179 170 162
154 145 137 128 120 112 5 115.4 325.7 516
672 793.7 929.7 1106.9 1249.7 1370.3 1525.7 1666.3 1753.7 1829.1
1883.4 1917.7 1923.4 1904 1864 1822.3 1765.7 1709.1 1680.6 1642.3
1597.1 1514.9 1379.4 1228 1080.6 940 818.3 728.6 663.4 607.4
562.9 539.4 532.6
332 332 331 330 328 326 322 319 314 309
304 298 292 286 280 273 266 259 252 244
236 229 220 212 204 196 187 179 170 162
154 145 137 128 120 112 6 97.7 302.3 497.7
673.7 818.9 969.1 1160 1301.7 1421.1 1573.1 1699.4 1780.6 1852.6
1907.4 1938.9 1938.9 1914.9 1869.1 1828.6 1764.6 1709.7 1684 1642.3
1594.9 1503.4 1361.7 1209.7 1064 925.7 808.6 722.9 659.4 604.6
561.1 535.4 532.6
332 332 331 330 328 326 322 319 314 309
304 298 292 286 280 273 266 259 252 244
236 229 220 212 204 196 187 179 170 162
154 145 137 128 120 112 6 86.9 286.9 479.4
661.7 821.7 983.4 1182.3 1339.4 1460.6 1605.7 1726.3 1804 1867.4
1915.4 1938.3 1933.1 1906.3 1858.9 1822.3 1759.4 1708.6 1681.7 1630.3
1571.4 1470.3 1328 1178.3 1037.1 904.6 795.4 714.9 653.1 600.6
558.9 533.7 532.6
332 332 331 330 328 326 322 319 314 309
304 298 292 286 280 273 266 259 252 244
236 229 220 212 204 196 187 179 170 162
154 145 137 128 120 112 5 82.9 280 461.1
636 802.9 972.6 1174.3 1362.9 1489.1 1624.6 1746.9 1824 1873.7
1906.9 1915.4 1906.3 1877.7 1833.7 1803.4 1750.3 1706.3 1673.1 1605.7
1526.3 1416 1277.1 1133.1 999.4 877.1 778.9 704.6 644.6 594.9
556 533.1 532.6
332 332 331 330 328 326 322 319 314 309
304 298 292 286 280 273 266 259 252 244
236 229 220 212 204 196 187 179 170 162
154 145 137 128 120 112 5 78.9 273.7 442.9
610.9 784 961.7 1166.9 1386.9 1517.1 1642.9 1766.9 1843.4 1880
1898.3 1893.1 1879.4 1849.1 1808 1784.6 1741.7 1703.4 1665.1 1581.1
1481.7 1361.7 1226.3 1088 961.7 849.1 762.9 694.3 636 588.6
553.1 532.6 532.6
332 332 331 330 328 326 322 319 314 309
304 298 292 286 280 273 266 259 252 244
236 229 220 212 204 196 187 179 170 162
154 145 137 128 120 112 4 75.4 266.9 424.6
585.1 764.6 950.9 1158.9 1410.3 1545.7 1661.7 1787.4 1863.4 1886.3
1890.3 1870.3 1852.6 1820.6 1782.9 1765.7 1732.6 1701.1 1656.6 1556.6
1436.6 1307.4 1175.4 1043.4 924 821.7 746.3 684 628 582.9
550.9 532 532.6
332 332 331 330 328 326 322 319 314 309
304 298 292 286 280 273 266 259 252 244
236 229 220 212 204 196 187 179 170 162
154 145 137 128 120 112 4 71.4 260 406.3
560 745.7 940 1150.9 1434.3 1574.3 1680 1808 1882.9 1892.6
1881.7 1847.4 1825.7 1792 1757.7 1746.9 1723.4 1698.9 1648.6 1532
1392 1253.1 1124.6 998.3 886.3 794.3 730.3 673.7 619.4 577.1
548 531.4 532.6
332 332 331 330 328 326 322 319 314 309
304 298 292 286 280 273 266 259 252 244
236 229 220 212 204 196 187 179 170 162
154 145 137 128 120 112 4 74.3 253.7 398.9
551.4 732.6 912.6 1097.7 1333.7 1456.6 1564 1686.9 1754.3 1782.3
1789.7 1770.3 1746.9 1705.1 1661.1 1638.9 1607.4 1574.9 1519.4 1416.6
1299.4 1183.4 1070.9 958.9 859.4 774.9 712.6 660 610.9 572.6
546.3 532 532.6
332 332 331 330 328 326 322 319 314 309
304 298 292 286 280 273 266 259 252 244
236 229 220 212 204 196 187 179 170 162
154 145 137 128 120 112 3 77.7 246.9 390.9
542.3 719.4 885.1 1044.6 1232.6 1338.3 1447.4 1565.1 1625.7 1672
1697.7 1693.7 1668 1618.3 1564.6 1530.3 1492 1451.4 1390.3 1301.1
1206.9 1113.7 1016.6 919.4 832.6 755.4 695.4 646.3 602.3 568
544.6 533.1 532.6
332 332 331 330 328 326 322 319 314 309
304 298 292 286 280 273 266 259 252 244
236 229 220 212 204 196 187 179 170 162
154 145 137 128 120 112 3 80.6 240.6 383.4
533.7 706.3 857.1 991.4 1132 1220.6 1331.4 1444 1497.1 1561.7
1605.7 1616.6 1589.1 1531.4 1468 1422.3 1376 1327.4 1261.7 1185.7
1114.3 1044 962.9 880 805.7 735.4 677.7 633.1 593.7 562.9
542.9 533.7 532.6
332 332 331 330 328 326 322 319 314 309
304 298 292 286 280 273 266 259 252 244
236 229 220 212 204 196 187 179 170 162
154 145 137 128 120 112 2 83.4 234.3 376
525.1 693.1 829.7 938.3 1030.9 1102.3 1215.4 1322.3 1368.6 1451.4
1513.7 1539.4 1510.3 1444.6 1371.4 1314.3 1260 1203.4 1132.6 1070.3
1021.7 974.3 908.6 840.6 778.9 716 660 619.4 585.1 558.3
541.1 534.3 532.6
332 332 331 330 328 326 322 319 314 309
304 298 292 286 280 273 266 259 252 244
236 229 220 212 204 196 187 179 170 162
154 145 137 128 120 112 2 78.3 214.9 346.9
484.6 635.4 757.1 849.1 916 974.9 1082.3 1185.1 1229.1 1316.6
1385.7 1423.4 1402.9 1342.3 1272.6 1214.3 1162.3 1108.6 1041.7 989.1
954.3 922.3 869.7 810.9 757.1 700.6 647.4 609.7 579.4 554.9
540.6 537.1 532.6
332 332 331 330 328 326 322 319 314 309
304 298 292 286 280 273 266 259 252 244
236 229 220 212 204 196 187 179 170 162
154 145 137 128 120 112 2 65.1 182.9 296.6
412.6 532 638.9 723.4 786.9 837.7 932.6 1031.4 1078.9 1158.3
1221.7 1268.6 1266.3 1224 1170.3 1122.3 1082.9 1042.3 989.7 942.3
912.6 887.4 845.1 791.4 741.7 689.7 640 603.4 575.4 553.1
540.6 541.7 532.6
332 332 331 330 328 326 322 319 314 309
304 298 292 286 280 273 266 259 252 244
236 229 220 212 204 196 187 179 170 162
154 145 137 128 120 112 2 52 151.4 246.9
340 428.6 520.6 597.1 658.3 700.6 782.3 877.7 928.6 999.4
1057.7 1113.1 1130.3 1105.7 1068 1030.9 1003.4 976 937.1 896
870.9 852.6 820.6 772.6 725.7 678.9 632 597.1 571.4 550.9
541.1 545.7 532.6
332 332 331 330 328 326 322 319 314 309
304 298 292 286 280 273 266 259 252 244
236 229 220 212 204 196 187 179 170 162
154 145 137 128 120 112 2 38.9 119.4 196.6
268 325.7 402.3 471.4 529.1 563.4 632.6 724 778.9 841.1
893.7 958.3 993.7 988 965.7 938.9 923.4 909.7 885.1 849.1
829.1 818.3 796.6 753.1 710.3 668 624.6 590.9 568 549.1
541.1 550.3 532.6
332 332 331 330 328 326 322 319 314 309
304 298 292 286 280 273 266 259 252 244
236 229 220 212 204 196 187 179 170 162
154 145 137 128 120 112 2 25.7 87.4 146.3
196 222.3 284 345.7 400 426.3 482.9 570.3 628.6 682.3
729.7 802.9 857.7 869.7 863.4 847.4 844 843.4 832.6 802.3
787.4 783.4 772 733.7 694.3 657.1 616.6 584.6 564 546.9
541.1 554.9 532.6
