IESNA:LM-63-2002
[TEST]253P327
[TESTLAB]METALUX LABORATORIES
[ISSUEDATE]05/28/08
[MANUFAC]COOPER LIGHTING - SHAPER
[LUMCAT]1220-XX-44-CFL/4/39-T5C/1/40
[LUMINAIRE]SHAPER 44 INCH 1220 SERIES DIRECT/INDIRECT INDOOR PENDANT FIXTURE
[MORE]WITH DEEP DIFFUSING BOWL 
[LAMP]FOUR 39 WATT BIAX COMPACT FLUORESCENT LAMPS AND ONE 40 WATT T5 CIRCLINE
[MORE](4)F39BX - 2850 LUMENS AND (1)TL5C40W/830 - 3300 LUMENS
[OTHER]PRORATED FROM TEST NO: 253P327
TILT=NONE
1 14700 1 73 19 1 1 -3.666667 -3.666667 0.1
1 1 43
0 2.5 5 7.5 10 12.5 15 17.5 20 22.5
25 27.5 30 32.5 35 37.5 40 42.5 45 47.5
50 52.5 55 57.5 60 62.5 65 67.5 70 72.5
75 77.5 80 82.5 85 87.5 90 92.5 95 97.5
100 102.5 105 107.5 110 112.5 115 117.5 120 122.5
125 127.5 130 132.5 135 137.5 140 142.5 145 147.5
150 152.5 155 157.5 160 162.5 165 167.5 170 172.5
175 177.5 180
0 5 10 15 20 25 30 35 40 45
50 55 60 65 70 75 80 85 90
379 379 378 377 375 372 368 364 359 353
347 341 334 327 319 311 303 295 286 277
268 259 249 239 230 220 210 200 189 180
170 160 150 140 131 122 3 266.9 627.9 903.9
1056.8 1138.2 1286.6 1500.1 1732.6 1929 2192.2 2481.8 2649.1 2784.9
2868.1 2934.1 2972.1 2962.2 2928.7 2856.3 2802 2704.3 2643.7 2601.2
2539.7 2451.9 2267.3 2031.2 1787.8 1557.1 1342.7 1181.6 1069.4 973.5
900.2 871.3 843.2
379 379 378 377 375 372 368 364 359 353
347 341 334 327 319 311 303 295 286 277
268 259 249 239 230 220 210 200 189 180
170 160 150 140 131 122 4 238.9 590.8 874.9
1059.5 1178 1348.1 1584.2 1815 2009.5 2266.4 2534.2 2691.7 2822
2906.1 2968.5 2996.6 2979.4 2936 2866.3 2800.2 2705.2 2649.1 2601.2
2536 2433.8 2239.3 2002.2 1762.5 1534.5 1327.3 1172.6 1063.1 969.9
897.5 865.9 843.2
379 379 378 377 375 372 368 364 359 353
347 341 334 327 319 311 303 295 286 277
268 259 249 239 230 220 210 200 189 180
170 160 150 140 131 122 4 210.8 552.8 846
1061.3 1217.8 1410.5 1668.4 1896.4 2089.1 2341.5 2586.7 2734.2 2859
2944.1 3002 3021 2997.5 2944.1 2875.3 2798.4 2705.2 2654.6 2601.2
2532.4 2415.7 2212.1 1973.3 1736.2 1511 1311 1163.5 1056.8 965.4
893.9 859.5 843.2
379 379 378 377 375 372 368 364 359 353
347 341 334 327 319 311 303 295 286 277
268 259 249 239 230 220 210 200 189 180
170 160 150 140 131 122 5 182.8 515.7 817
1064 1256.7 1472 1752.5 1978.7 2169.6 2415.7 2638.3 2776.7 2896.1
2982.1 3036.4 3045.4 3014.7 2951.3 2885.3 2795.7 2706.1 2660.9 2600.3
2528.8 2398.5 2184.1 1944.3 1710.9 1488.3 1295.6 1153.6 1050.4 961.8
891.2 854.1 843.2
379 379 378 377 375 372 368 364 359 353
347 341 334 327 319 311 303 295 286 277
268 259 249 239 230 220 210 200 189 180
170 160 150 140 131 122 6 154.7 478.6 788
1066.7 1296.5 1534.5 1836.7 2061 2250.1 2490.8 2690.8 2819.2 2933.2
3020.1 3069.9 3069.9 3031.9 2959.5 2895.2 2793.9 2707 2666.3 2600.3
2525.2 2380.4 2156 1915.4 1684.7 1465.7 1280.2 1144.5 1044.1 957.2
888.5 847.8 843.2
379 379 378 377 375 372 368 364 359 353
347 341 334 327 319 311 303 295 286 277
268 259 249 239 230 220 210 200 189 180
170 160 150 140 131 122 6 137.5 454.2 759.1
1047.7 1301 1557.1 1872 2120.8 2312.6 2542.4 2733.3 2856.3 2956.8
3032.8 3069 3060.8 3018.3 2943.2 2885.3 2785.8 2705.2 2662.7 2581.3
2488.1 2328 2102.7 1865.6 1642.1 1432.2 1259.4 1131.9 1034.1 950.9
884.9 845 843.2
379 379 378 377 375 372 368 364 359 353
347 341 334 327 319 311 303 295 286 277
268 259 249 239 230 220 210 200 189 180
170 160 150 140 131 122 5 131.2 443.3 730.1
1007 1271.2 1539.9 1859.3 2157.9 2357.8 2572.2 2765.9 2888 2966.7
3019.2 3032.8 3018.3 2973 2903.4 2855.4 2771.3 2701.6 2649.1 2542.4
2416.6 2242 2022.1 1794.1 1582.4 1388.8 1233.2 1115.6 1020.6 941.9
880.3 844.1 843.2
379 379 378 377 375 372 368 364 359 353
347 341 334 327 319 311 303 295 286 277
268 259 249 239 230 220 210 200 189 180
170 160 150 140 131 122 5 124.9 433.4 701.2
967.2 1241.3 1522.7 1847.5 2195.9 2402.1 2601.2 2797.5 2918.8 2976.7
3005.6 2997.5 2975.8 2927.8 2862.7 2825.6 2757.7 2697.1 2636.5 2503.5
2346 2156 1941.6 1722.7 1522.7 1344.5 1207.9 1099.3 1007 931.9
875.8 843.2 843.2
379 379 378 377 375 372 368 364 359 353
347 341 334 327 319 311 303 295 286 277
268 259 249 239 230 220 210 200 189 180
170 160 150 140 131 122 4 119.4 422.5 672.2
926.5 1210.6 1505.5 1834.9 2233 2447.4 2631 2830.1 2950.4 2986.6
2993 2961.3 2933.2 2882.6 2822.9 2795.7 2743.2 2693.5 2622.9 2464.6
2274.6 2070.1 1861.1 1652.1 1463 1301 1181.6 1083 994.3 922.9
872.2 842.3 843.2
379 379 378 377 375 372 368 364 359 353
347 341 334 327 319 311 303 295 286 277
268 259 249 239 230 220 210 200 189 180
170 160 150 140 131 122 4 113.1 411.7 643.3
886.7 1180.7 1488.3 1822.2 2271 2492.6 2660 2862.7 2981.2 2996.6
2979.4 2925.1 2890.7 2837.3 2783 2765.9 2728.8 2689.9 2610.2 2425.7
2204 1984.1 1780.6 1580.6 1403.3 1257.6 1156.3 1066.7 980.8 913.8
867.7 841.4 843.2
379 379 378 377 375 372 368 364 359 353
347 341 334 327 319 311 303 295 286 277
268 259 249 239 230 220 210 200 189 180
170 160 150 140 131 122 4 117.6 401.7 631.5
873.1 1159.9 1444.9 1738 2111.7 2306.2 2476.3 2670.9 2777.6 2822
2833.7 2803 2765.9 2699.8 2630.1 2594.9 2545.1 2493.5 2405.8 2242.9
2057.4 1873.8 1695.5 1518.2 1360.8 1226.9 1128.2 1045 967.2 906.6
865 842.3 843.2
379 379 378 377 375 372 368 364 359 353
347 341 334 327 319 311 303 295 286 277
268 259 249 239 230 220 210 200 189 180
170 160 150 140 131 122 3 123 390.9 618.9
858.6 1139.1 1401.5 1653.9 1951.6 2119 2291.8 2478.1 2574 2647.3
2688 2681.7 2641 2562.3 2477.2 2423 2362.3 2298.1 2201.3 2060.1
1910.9 1763.4 1609.6 1455.8 1318.2 1196.1 1101.1 1023.3 953.6 899.3
862.2 844.1 843.2
379 379 378 377 375 372 368 364 359 353
347 341 334 327 319 311 303 295 286 277
268 259 249 239 230 220 210 200 189 180
170 160 150 140 131 122 3 127.6 380.9 607.1
845 1118.3 1357.1 1569.8 1792.3 1932.6 2108.1 2286.3 2370.5 2472.7
2542.4 2559.6 2516.1 2424.8 2324.3 2252 2178.7 2101.8 1997.7 1877.4
1764.3 1653 1524.5 1393.3 1275.7 1164.4 1073 1002.5 940 891.2
859.5 845 843.2
379 379 378 377 375 372 368 364 359 353
347 341 334 327 319 311 303 295 286 277
268 259 249 239 230 220 210 200 189 180
170 160 150 140 131 122 2 132.1 371 595.3
831.5 1097.5 1313.7 1485.6 1632.2 1745.3 1924.4 2093.6 2166.9 2298.1
2396.7 2437.4 2391.3 2287.2 2171.4 2081 1995 1905.4 1793.2 1694.6
1617.7 1542.6 1438.6 1330.9 1233.2 1133.7 1045 980.8 926.5 884
856.8 846 843.2
379 379 378 377 375 372 368 364 359 353
347 341 334 327 319 311 303 295 286 277
268 259 249 239 230 220 210 200 189 180
170 160 150 140 131 122 2 124 340.2 549.2
767.2 1006.1 1198.8 1344.5 1450.3 1543.5 1713.6 1876.5 1946.1 2084.6
2194 2253.8 2221.2 2125.3 2014.9 1922.6 1840.3 1755.2 1649.4 1566.1
1511 1460.3 1377 1283.9 1198.8 1109.2 1025.1 965.4 917.4 878.5
855.9 850.5 843.2
379 379 378 377 375 372 368 364 359 353
347 341 334 327 319 311 303 295 286 277
268 259 249 239 230 220 210 200 189 180
170 160 150 140 131 122 2 103.1 289.5 469.6
653.2 842.3 1011.5 1145.4 1245.9 1326.4 1476.6 1633.1 1708.2 1834
1934.4 2008.6 2005 1938 1853 1777 1714.5 1650.3 1567 1492
1444.9 1405.1 1338.1 1253.1 1174.4 1092 1013.3 955.4 911.1 875.8
855.9 857.7 843.2
379 379 378 377 375 372 368 364 359 353
347 341 334 327 319 311 303 295 286 277
268 259 249 239 230 220 210 200 189 180
170 160 150 140 131 122 2 82.3 239.8 390.9
538.3 678.6 824.2 945.5 1042.3 1109.2 1238.6 1389.7 1470.2 1582.4
1674.7 1762.5 1789.6 1750.7 1691 1632.2 1588.8 1545.3 1483.8 1418.7
1378.9 1349.9 1299.2 1223.2 1149 1074.9 1000.7 945.5 904.8 872.2
856.8 864 843.2
379 379 378 377 375 372 368 364 359 353
347 341 334 327 319 311 303 295 286 277
268 259 249 239 230 220 210 200 189 180
170 160 150 140 131 122 2 61.5 189.1 311.2
424.3 515.7 637 746.4 837.8 892.1 1001.6 1146.3 1233.2 1331.8
1415 1517.3 1573.4 1564.3 1529 1486.5 1462.1 1440.4 1401.5 1344.5
1312.8 1295.6 1261.2 1192.5 1124.6 1057.7 988.9 935.5 899.3 869.5
856.8 871.3 843.2
379 379 378 377 375 372 368 364 359 353
347 341 334 327 319 311 303 295 286 277
268 259 249 239 230 220 210 200 189 180
170 160 150 140 131 122 2 40.7 138.4 231.6
310.3 352 449.7 547.4 633.3 675 764.5 903 995.2 1080.3
1155.4 1271.2 1358 1377 1367.1 1341.8 1336.3 1335.4 1318.2 1270.3
1246.8 1240.4 1222.3 1161.7 1099.3 1040.5 976.2 925.6 893 865.9
856.8 878.5 843.2
