IESNA:LM-63-2002
[TEST]253P328
[TESTLAB]METALUX LABORATORIES
[ISSUEDATE]05/28/08
[MANUFAC]COOPER LIGHTING - SHAPER
[LUMCAT]1220-XX-44-CFL/8/27-T5C/1/40
[LUMINAIRE]SHAPER 44 INCH 1220 SERIES DIRECT/INDIRECT INDOOR PENDANT FIXTURE
[MORE]WITH DEEP DIFFUSING BOWL
[LAMP]EIGHT 24 WATT BIAX COMPACT FLUORESCENT LAMPS AND ONE 40 WATT T5 CIRCLINE
[MORE](8)F24BX - 1800 LUMENS AND (1)TL5C40W/830 - 3300 LUMENS
[OTHER]PRORATED FROM TEST NO: 253P328
TILT=NONE
1 17700 1 73 19 1 1 -3.666667 -3.666667 0.1
1 1 43
0 2.5 5 7.5 10 12.5 15 17.5 20 22.5
25 27.5 30 32.5 35 37.5 40 42.5 45 47.5
50 52.5 55 57.5 60 62.5 65 67.5 70 72.5
75 77.5 80 82.5 85 87.5 90 92.5 95 97.5
100 102.5 105 107.5 110 112.5 115 117.5 120 122.5
125 127.5 130 132.5 135 137.5 140 142.5 145 147.5
150 152.5 155 157.5 160 162.5 165 167.5 170 172.5
175 177.5 180
0 5 10 15 20 25 30 35 40 45
50 55 60 65 70 75 80 85 90
379 379 378 377 375 372 368 364 359 353
347 341 334 327 319 311 303 295 286 277
268 259 249 239 230 220 210 200 189 180
170 160 150 140 131 122 19 230.3 586.3 870.9
1070.3 1254.9 1433.1 1608 1778.9 1936 2176.6 2458.9 2679.4 2891.4
3056.6 3181.1 3209.7 3196.6 3258.9 3349.7 3450.3 3532.6 3569.7 3561.7
3546.3 3498.9 3381.7 3181.7 2962.9 2730.3 2504.6 2304.6 2126.9 1959.4
1826.3 1740.6 1705.1
379 379 378 377 375 372 368 364 359 353
347 341 334 327 319 311 303 295 286 277
268 259 249 239 230 220 210 200 189 180
170 160 150 140 131 122 19 207.4 548 838.9
1071.4 1288 1478.3 1660 1835.4 1995.4 2237.1 2512.6 2737.7 2950.3
3111.4 3220.6 3236 3231.4 3295.4 3384 3476.6 3545.1 3570.9 3559.4
3539.4 3481.1 3349.7 3146.3 2926.3 2697.1 2477.7 2282.9 2109.7 1948
1818.9 1737.1 1705.1
379 379 378 377 375 372 368 364 359 353
347 341 334 327 319 311 303 295 286 277
268 259 249 239 230 220 210 200 189 180
170 160 150 140 131 122 18 184.6 509.7 806.9
1072.6 1321.1 1523.4 1712 1892.6 2054.3 2297.7 2566.3 2796 3009.7
3166.3 3260.6 3262.9 3266.9 3332.6 3418.3 3502.9 3557.7 3572.6 3557.1
3532.6 3463.4 3317.7 3110.9 2889.7 2664 2450.3 2261.7 2092.6 1936.6
1812 1733.7 1705.1
379 379 378 377 375 372 368 364 359 353
347 341 334 327 319 311 303 295 286 277
268 259 249 239 230 220 210 200 189 180
170 160 150 140 131 122 18 161.1 471.4 774.3
1073.1 1353.7 1568.6 1764 1949.1 2113.7 2358.3 2619.4 2854.9 3068.6
3221.7 3300 3289.1 3301.7 3369.1 3452 3529.1 3570.9 3573.7 3554.3
3526.3 3445.7 3285.1 3076 2853.1 2630.3 2423.4 2240 2075.4 1925.1
1804.6 1729.7 1705.1
379 379 378 377 375 372 368 364 359 353
347 341 334 327 319 311 303 295 286 277
268 259 249 239 230 220 210 200 189 180
170 160 150 140 131 122 17 138.3 433.1 742.3
1074.3 1386.9 1613.7 1816 2005.7 2172.6 2418.9 2673.1 2913.1 3127.4
3276.6 3339.4 3316 3336.6 3406.3 3486.3 3555.4 3583.4 3575.4 3552
3519.4 3428 3253.1 3040.6 2816.6 2597.1 2396.6 2218.9 2058.3 1913.7
1797.1 1726.3 1705.1
379 379 378 377 375 372 368 364 359 353
347 341 334 327 319 311 303 295 286 277
268 259 249 239 230 220 210 200 189 180
170 160 150 140 131 122 17 124 407.4 716
1058.9 1380 1611.4 1825.7 2038.9 2222.9 2470.9 2717.7 2945.1 3138.3
3276 3338.9 3329.1 3366.9 3438.9 3517.7 3580.6 3602.3 3585.1 3550.9
3500.6 3392 3206.9 2993.1 2771.4 2557.1 2362.9 2189.7 2034.3 1897.1
1788.6 1722.9 1705.1
379 379 378 377 375 372 368 364 359 353
347 341 334 327 319 311 303 295 286 277
268 259 249 239 230 220 210 200 189 180
170 160 150 140 131 122 17 118.9 394.3 694.9
1026.9 1333.1 1562.3 1793.1 2047.4 2263.4 2514.3 2752.6 2950.3 3100.6
3219.4 3297.1 3328.6 3391.4 3468 3545.7 3605.1 3627.4 3604 3550.3
3469.1 3337.1 3146.3 2933.7 2717.7 2510.9 2323.4 2153.7 2004 1876
1778.3 1720 1705.1
379 379 378 377 375 372 368 364 359 353
347 341 334 327 319 311 303 295 286 277
268 259 249 239 230 220 210 200 189 180
170 160 150 140 131 122 17 113.7 381.7 673.7
994.9 1286.3 1513.1 1760 2056 2304.6 2557.1 2787.4 2955.4 3062.3
3162.9 3255.4 3328.6 3416 3497.1 3574.3 3629.7 3652 3622.9 3550.3
3437.7 3282.3 3086.3 2873.7 2664 2464.6 2284 2117.7 1973.1 1854.9
1767.4 1717.1 1705.1
379 379 378 377 375 372 368 364 359 353
347 341 334 327 319 311 303 295 286 277
268 259 249 239 230 220 210 200 189 180
170 160 150 140 131 122 17 108 368.6 653.1
962.9 1239.4 1464 1727.4 2064.6 2345.1 2600.6 2822.9 2960.6 3024.6
3106.9 3213.7 3328 3441.1 3526.3 3602.3 3653.7 3677.1 3641.7 3549.7
3406.3 3227.4 3025.7 2814.3 2610.3 2417.7 2244.6 2081.7 1942.9 1833.1
1757.1 1714.3 1705.1
379 379 378 377 375 372 368 364 359 353
347 341 334 327 319 311 303 295 286 277
268 259 249 239 230 220 210 200 189 180
170 160 150 140 131 122 17 102.9 356 632
930.9 1192.6 1414.9 1694.3 2073.1 2386.3 2644 2857.7 2965.7 2986.9
3050.3 3172 3328 3465.7 3555.4 3630.9 3678.3 3702.3 3660.6 3549.7
3374.9 3172.6 2965.1 2754.9 2556.6 2371.4 2205.1 2045.7 1912 1812
1746.9 1711.4 1705.1
379 379 378 377 375 372 368 364 359 353
347 341 334 327 319 311 303 295 286 277
268 259 249 239 230 220 210 200 189 180
170 160 150 140 131 122 18 109.7 354.9 620.6
901.1 1162.9 1388.6 1648.6 1970.3 2248 2506.9 2728.6 2850.3 2904
2979.4 3088.6 3217.1 3330.9 3400 3457.7 3492 3503.4 3464 3369.7
3220 3042.3 2855.4 2663.4 2481.1 2308 2152.6 2005.7 1883.4 1793.7
1738.9 1710.3 1705.1
379 379 378 377 375 372 368 364 359 353
347 341 334 327 319 311 303 295 286 277
268 259 249 239 230 220 210 200 189 180
170 160 150 140 131 122 20 116.6 354.3 609.1
871.4 1133.1 1362.3 1603.4 1867.4 2109.1 2369.7 2598.9 2735.4 2821.1
2909.1 3005.1 3105.7 3196.6 3244.6 3284.6 3305.7 3304.6 3267.4 3189.7
3065.1 2912 2745.7 2571.4 2405.7 2244.6 2100 1966.3 1854.9 1776
1730.3 1709.7 1705.1
379 379 378 377 375 372 368 364 359 353
347 341 334 327 319 311 303 295 286 277
268 259 249 239 230 220 210 200 189 180
170 160 150 140 131 122 21 124 353.1 597.7
842.3 1104 1336.6 1557.7 1764.6 1970.9 2233.1 2469.7 2620 2738.3
2838.3 2921.1 2994.9 3061.7 3088.6 3111.4 3119.4 3105.1 3070.9 3009.7
2910.3 2782.3 2635.4 2480 2330.9 2181.1 2047.4 1926.3 1826.3 1757.7
1722.3 1708.6 1705.1
379 379 378 377 375 372 368 364 359 353
347 341 334 327 319 311 303 295 286 277
268 259 249 239 230 220 210 200 189 180
170 160 150 140 131 122 22 130.9 352.6 586.3
812.6 1074.3 1310.3 1512.6 1661.7 1832 2096 2340 2505.1 2655.4
2768 2837.7 2883.4 2927.4 2933.1 2938.3 2933.1 2906.3 2874.3 2829.7
2755.4 2652 2525.7 2388 2255.4 2117.7 1994.9 1886.9 1797.7 1740
1713.7 1708 1705.1
379 379 378 377 375 372 368 364 359 353
347 341 334 327 319 311 303 295 286 277
268 259 249 239 230 220 210 200 189 180
170 160 150 140 131 122 23 125.1 326.9 540
744.6 989.1 1213.1 1396.6 1514.3 1659.4 1909.1 2147.4 2312 2474.3
2590.3 2657.7 2693.1 2727.4 2732.6 2738.3 2737.1 2716 2694.9 2668
2616.6 2536 2429.7 2308.6 2190.9 2066.3 1953.7 1855.4 1776 1725.1
1705.7 1705.7 1705.1
379 379 378 377 375 372 368 364 359 353
347 341 334 327 319 311 303 295 286 277
268 259 249 239 230 220 210 200 189 180
170 160 150 140 131 122 23 106.3 276.6 458.9
638.3 849.1 1045.1 1209.7 1322.9 1452.6 1673.1 1890.9 2041.7 2193.7
2305.1 2381.1 2424 2462.3 2487.4 2512 2530.9 2534.9 2532.6 2523.4
2494.9 2433.7 2347.4 2241.7 2137.7 2026.9 1924 1833.1 1760.6 1714.3
1698.3 1702.3 1705.1
379 379 378 377 375 372 368 364 359 353
347 341 334 327 319 311 303 295 286 277
268 259 249 239 230 220 210 200 189 180
170 160 150 140 131 122 24 88 225.7 377.7
531.4 709.1 877.7 1023.4 1130.9 1245.1 1436.6 1634.3 1771.4 1913.1
2020 2104.6 2154.3 2196.6 2242.3 2285.1 2324.6 2353.1 2370.3 2378.9
2372.6 2332 2264.6 2174.9 2084.6 1986.9 1893.7 1810.9 1745.1 1703.4
1690.3 1699.4 1705.1
379 379 378 377 375 372 368 364 359 353
347 341 334 327 319 311 303 295 286 277
268 259 249 239 230 220 210 200 189 180
170 160 150 140 131 122 24 69.1 175.4 296.6
425.1 568.6 709.7 836.6 939.4 1038.3 1200.6 1378.3 1501.1 1633.1
1734.9 1828 1885.1 1931.4 1997.1 2058.9 2118.9 2172 2208 2234.9
2250.9 2229.7 2182.3 2107.4 2030.9 1947.4 1864 1788.6 1729.7 1692
1682.9 1696 1705.1
379 379 378 377 375 372 368 364 359 353
347 341 334 327 319 311 303 295 286 277
268 259 249 239 230 220 210 200 189 180
170 160 150 140 131 122 24 50.9 125.1 215.4
318.9 428.6 541.7 650.3 747.4 831.4 964 1121.7 1230.9 1352.6
1449.7 1551.4 1615.4 1666.3 1752 1832.6 1912.6 1990.3 2045.7 2090.3
2128.6 2128 2100 2040.6 1977.7 1907.4 1834.3 1766.3 1714.3 1681.1
1674.9 1692.6 1705.1
