IESNA:LM-63-2002
[TEST]253P288
[TESTLAB]METALUX LABORITORIES
[ISSUEDATE]08/01/07
[MANUFAC]COOPER LIGHTING - SHAPER
[LUMCAT]1220-XX-36-CFL/3/42-T5C/1/40
[LUMINAIRE]SHAPER 36 INCH 1220 SERIES DIRECT/INDIRECT INDOOR PENDANT FIXTURE 
[MORE]WITH DEEP DIFFUSING BOWL
[LAMP]THREE 42 WATT PLT FLUORESCENT LAMSP AND ONE 40 WATTS CIRCLINE FLUORESCENT
[MORE](3)CF42DT/EIN841 - 3200 LUMENS AND (1)TL5C40W/830 - 3300 LUMENS 
TILT=NONE
1 12900 1 73 37 1 1 -3 -3 0
1 1 43
0 2.5 5 7.5 10 12.5 15 17.5 20 22.5 25 27.5 30 32.5 35 37.5 40 42.5 45 47.5 50 52.5 55 57.5 60 62.5 65 67.5 70 72.5 75 77.5 80 82.5 85 87.5 90 92.5 95 97.5 100 102.5 105 107.5 110 112.5 115 117.5 120 122.5 125 127.5 130 132.5 135 137.5 140 142.5 145 147.5
 150 152.5 155 157.5 160 162.5 165 167.5 170 172.5 175 177.5 180
0 5 10 15 20 25 30 35 40 45 50 55 60 65 70 75 80 85 90 95 100 105 110 115 120 125 130 135 140 145 150 155 160 165 170 175 180
434.00 434.00 433.00 431.00 428.00 425.00 420.00 415.00 409.00 403.00 396.00 388.00 380.00 372.00 364.00 355.00 346.00 336.00 327.00 317.00 307.00 296.00 286.00 275.00 264.00 253.00 242.00 231.00 219.00 208.00 197.00 186.00 174.00 164.00 153.00 142.00 
44.00 268.00 564.00 700.00 765.00 819.00 887.00 1001.00 1127.00 1237.00 1332.00 1420.00 1501.00 1564.00 1616.00 1664.00 1702.00 1735.00 1763.00 1784.00 1796.00 1807.00 1796.00 1826.00 1845.00 1873.00 1869.00 1835.00 1788.00 1706.00 1612.00 1529.00 1437.00
 1343.00 1248.00 1158.00 1092.00
434.00 434.00 433.00 431.00 428.00 425.00 420.00 415.00 409.00 403.00 396.00 388.00 380.00 372.00 364.00 355.00 346.00 336.00 327.00 317.00 307.00 296.00 286.00 275.00 264.00 253.00 242.00 231.00 219.00 208.00 197.00 186.00 174.00 164.00 153.00 142.00 
51.00 294.00 578.00 703.00 767.00 829.00 902.00 1020.00 1149.00 1254.00 1352.00 1444.00 1532.00 1607.00 1674.00 1734.00 1775.00 1803.00 1827.00 1841.00 1851.00 1860.00 1845.00 1859.00 1862.00 1869.00 1855.00 1820.00 1776.00 1700.00 1604.00 1520.00 1432.00
 1341.00 1248.00 1152.00 1092.00
434.00 434.00 433.00 431.00 428.00 425.00 420.00 415.00 409.00 403.00 396.00 388.00 380.00 372.00 364.00 355.00 346.00 336.00 327.00 317.00 307.00 296.00 286.00 275.00 264.00 253.00 242.00 231.00 219.00 208.00 197.00 186.00 174.00 164.00 153.00 142.00 
59.00 320.00 591.00 707.00 769.00 840.00 918.00 1039.00 1170.00 1272.00 1371.00 1469.00 1563.00 1650.00 1732.00 1803.00 1848.00 1871.00 1891.00 1897.00 1907.00 1912.00 1894.00 1891.00 1879.00 1865.00 1840.00 1806.00 1764.00 1694.00 1596.00 1511.00 1426.00
 1338.00 1248.00 1147.00 1092.00
434.00 434.00 433.00 431.00 428.00 425.00 420.00 415.00 409.00 403.00 396.00 388.00 380.00 372.00 364.00 355.00 346.00 336.00 327.00 317.00 307.00 296.00 286.00 275.00 264.00 253.00 242.00 231.00 219.00 208.00 197.00 186.00 174.00 164.00 153.00 142.00 
66.00 346.00 605.00 710.00 770.00 850.00 933.00 1058.00 1192.00 1289.00 1391.00 1493.00 1594.00 1692.00 1789.00 1873.00 1920.00 1938.00 1954.00 1954.00 1962.00 1965.00 1943.00 1924.00 1896.00 1860.00 1826.00 1791.00 1751.00 1688.00 1587.00 1501.00 1421.00
 1336.00 1247.00 1141.00 1092.00
434.00 434.00 433.00 431.00 428.00 425.00 420.00 415.00 409.00 403.00 396.00 388.00 380.00 372.00 364.00 355.00 346.00 336.00 327.00 317.00 307.00 296.00 286.00 275.00 264.00 253.00 242.00 231.00 219.00 208.00 197.00 186.00 174.00 164.00 153.00 142.00 
73.00 372.00 618.00 713.00 772.00 860.00 948.00 1077.00 1213.00 1306.00 1410.00 1517.00 1625.00 1735.00 1847.00 1942.00 1993.00 2006.00 2018.00 2010.00 2017.00 2017.00 1992.00 1956.00 1913.00 1856.00 1811.00 1776.00 1739.00 1682.00 1579.00 1492.00 1415.00
 1333.00 1247.00 1135.00 1092.00
434.00 434.00 433.00 431.00 428.00 425.00 420.00 415.00 409.00 403.00 396.00 388.00 380.00 372.00 364.00 355.00 346.00 336.00 327.00 317.00 307.00 296.00 286.00 275.00 264.00 253.00 242.00 231.00 219.00 208.00 197.00 186.00 174.00 164.00 153.00 142.00 
66.00 309.00 570.00 708.00 769.00 847.00 940.00 1093.00 1246.00 1352.00 1447.00 1543.00 1647.00 1758.00 1879.00 1977.00 2035.00 2074.00 2105.00 2111.00 2108.00 2081.00 2034.00 1976.00 1892.00 1830.00 1797.00 1765.00 1723.00 1666.00 1577.00 1484.00 1404.00
 1322.00 1243.00 1131.00 1092.00
434.00 434.00 433.00 431.00 428.00 425.00 420.00 415.00 409.00 403.00 396.00 388.00 380.00 372.00 364.00 355.00 346.00 336.00 327.00 317.00 307.00 296.00 286.00 275.00 264.00 253.00 242.00 231.00 219.00 208.00 197.00 186.00 174.00 164.00 153.00 142.00 
59.00 246.00 521.00 702.00 765.00 834.00 931.00 1109.00 1279.00 1397.00 1484.00 1569.00 1668.00 1781.00 1911.00 2011.00 2077.00 2142.00 2192.00 2212.00 2198.00 2145.00 2075.00 1995.00 1870.00 1803.00 1783.00 1753.00 1706.00 1650.00 1574.00 1475.00 1392.00
 1311.00 1239.00 1126.00 1092.00
434.00 434.00 433.00 431.00 428.00 425.00 420.00 415.00 409.00 403.00 396.00 388.00 380.00 372.00 364.00 355.00 346.00 336.00 327.00 317.00 307.00 296.00 286.00 275.00 264.00 253.00 242.00 231.00 219.00 208.00 197.00 186.00 174.00 164.00 153.00 142.00 
59.00 270.00 508.00 692.00 787.00 881.00 995.00 1149.00 1293.00 1397.00 1473.00 1552.00 1653.00 1771.00 1904.00 1998.00 2057.00 2121.00 2167.00 2188.00 2189.00 2163.00 2106.00 2005.00 1890.00 1823.00 1791.00 1747.00 1693.00 1632.00 1555.00 1464.00 1385.00
 1306.00 1225.00 1124.00 1092.00
434.00 434.00 433.00 431.00 428.00 425.00 420.00 415.00 409.00 403.00 396.00 388.00 380.00 372.00 364.00 355.00 346.00 336.00 327.00 317.00 307.00 296.00 286.00 275.00 264.00 253.00 242.00 231.00 219.00 208.00 197.00 186.00 174.00 164.00 153.00 142.00 
59.00 294.00 494.00 681.00 808.00 928.00 1058.00 1188.00 1306.00 1397.00 1462.00 1535.00 1638.00 1761.00 1897.00 1984.00 2036.00 2099.00 2142.00 2163.00 2180.00 2181.00 2136.00 2014.00 1910.00 1843.00 1798.00 1741.00 1680.00 1613.00 1535.00 1452.00 
1377.00 1300.00 1211.00 1121.00 1092.00
434.00 434.00 433.00 431.00 428.00 425.00 420.00 415.00 409.00 403.00 396.00 388.00 380.00 372.00 364.00 355.00 346.00 336.00 327.00 317.00 307.00 296.00 286.00 275.00 264.00 253.00 242.00 231.00 219.00 208.00 197.00 186.00 174.00 164.00 153.00 142.00 
63.00 299.00 544.00 722.00 837.00 946.00 1065.00 1186.00 1293.00 1386.00 1461.00 1546.00 1652.00 1762.00 1874.00 1944.00 1990.00 2052.00 2087.00 2090.00 2100.00 2095.00 2056.00 1963.00 1890.00 1837.00 1801.00 1741.00 1681.00 1613.00 1535.00 1456.00 
1383.00 1306.00 1217.00 1130.00 1092.00
434.00 434.00 433.00 431.00 428.00 425.00 420.00 415.00 409.00 403.00 396.00 388.00 380.00 372.00 364.00 355.00 346.00 336.00 327.00 317.00 307.00 296.00 286.00 275.00 264.00 253.00 242.00 231.00 219.00 208.00 197.00 186.00 174.00 164.00 153.00 142.00 
67.00 304.00 594.00 762.00 865.00 963.00 1073.00 1184.00 1280.00 1375.00 1460.00 1557.00 1666.00 1764.00 1852.00 1904.00 1945.00 2004.00 2033.00 2017.00 2019.00 2009.00 1976.00 1911.00 1871.00 1830.00 1804.00 1741.00 1682.00 1613.00 1535.00 1461.00 
1389.00 1311.00 1224.00 1140.00 1092.00
434.00 434.00 433.00 431.00 428.00 425.00 420.00 415.00 409.00 403.00 396.00 388.00 380.00 372.00 364.00 355.00 346.00 336.00 327.00 317.00 307.00 296.00 286.00 275.00 264.00 253.00 242.00 231.00 219.00 208.00 197.00 186.00 174.00 164.00 153.00 142.00 
71.00 309.00 644.00 803.00 894.00 981.00 1080.00 1182.00 1266.00 1363.00 1458.00 1568.00 1679.00 1765.00 1829.00 1864.00 1899.00 1957.00 1978.00 1944.00 1939.00 1922.00 1895.00 1860.00 1851.00 1824.00 1807.00 1741.00 1683.00 1612.00 1534.00 1465.00 
1394.00 1317.00 1230.00 1149.00 1092.00
434.00 434.00 433.00 431.00 428.00 425.00 420.00 415.00 409.00 403.00 396.00 388.00 380.00 372.00 364.00 355.00 346.00 336.00 327.00 317.00 307.00 296.00 286.00 275.00 264.00 253.00 242.00 231.00 219.00 208.00 197.00 186.00 174.00 164.00 153.00 142.00 
75.00 314.00 694.00 843.00 922.00 998.00 1087.00 1180.00 1253.00 1352.00 1457.00 1579.00 1693.00 1766.00 1806.00 1824.00 1853.00 1909.00 1923.00 1871.00 1858.00 1836.00 1815.00 1808.00 1831.00 1817.00 1810.00 1741.00 1684.00 1612.00 1534.00 1469.00 
1400.00 1322.00 1236.00 1158.00 1092.00
434.00 434.00 433.00 431.00 428.00 425.00 420.00 415.00 409.00 403.00 396.00 388.00 380.00 372.00 364.00 355.00 346.00 336.00 327.00 317.00 307.00 296.00 286.00 275.00 264.00 253.00 242.00 231.00 219.00 208.00 197.00 186.00 174.00 164.00 153.00 142.00 
75.00 310.00 665.00 818.00 897.00 968.00 1051.00 1160.00 1262.00 1370.00 1470.00 1575.00 1676.00 1752.00 1803.00 1834.00 1875.00 1934.00 1955.00 1927.00 1919.00 1894.00 1862.00 1838.00 1845.00 1827.00 1815.00 1753.00 1698.00 1627.00 1549.00 1482.00 
1411.00 1328.00 1238.00 1158.00 1092.00
434.00 434.00 433.00 431.00 428.00 425.00 420.00 415.00 409.00 403.00 396.00 388.00 380.00 372.00 364.00 355.00 346.00 336.00 327.00 317.00 307.00 296.00 286.00 275.00 264.00 253.00 242.00 231.00 219.00 208.00 197.00 186.00 174.00 164.00 153.00 142.00 
75.00 307.00 635.00 794.00 872.00 938.00 1014.00 1141.00 1272.00 1388.00 1483.00 1571.00 1660.00 1737.00 1799.00 1843.00 1897.00 1959.00 1987.00 1983.00 1980.00 1952.00 1910.00 1869.00 1859.00 1838.00 1819.00 1764.00 1713.00 1641.00 1565.00 1496.00 
1423.00 1335.00 1240.00 1158.00 1092.00
434.00 434.00 433.00 431.00 428.00 425.00 420.00 415.00 409.00 403.00 396.00 388.00 380.00 372.00 364.00 355.00 346.00 336.00 327.00 317.00 307.00 296.00 286.00 275.00 264.00 253.00 242.00 231.00 219.00 208.00 197.00 186.00 174.00 164.00 153.00 142.00 
75.00 303.00 606.00 769.00 847.00 907.00 978.00 1121.00 1281.00 1405.00 1496.00 1567.00 1643.00 1723.00 1796.00 1853.00 1918.00 1984.00 2019.00 2038.00 2041.00 2010.00 1957.00 1899.00 1872.00 1848.00 1824.00 1776.00 1727.00 1656.00 1580.00 1509.00 1434.00
 1341.00 1241.00 1157.00 1092.00
434.00 434.00 433.00 431.00 428.00 425.00 420.00 415.00 409.00 403.00 396.00 388.00 380.00 372.00 364.00 355.00 346.00 336.00 327.00 317.00 307.00 296.00 286.00 275.00 264.00 253.00 242.00 231.00 219.00 208.00 197.00 186.00 174.00 164.00 153.00 142.00 
75.00 299.00 576.00 744.00 822.00 877.00 941.00 1101.00 1290.00 1423.00 1509.00 1563.00 1626.00 1708.00 1792.00 1862.00 1940.00 2009.00 2051.00 2094.00 2102.00 2068.00 2004.00 1929.00 1886.00 1858.00 1828.00 1787.00 1741.00 1670.00 1595.00 1522.00 1445.00
 1347.00 1243.00 1157.00 1092.00
434.00 434.00 433.00 431.00 428.00 425.00 420.00 415.00 409.00 403.00 396.00 388.00 380.00 372.00 364.00 355.00 346.00 336.00 327.00 317.00 307.00 296.00 286.00 275.00 264.00 253.00 242.00 231.00 219.00 208.00 197.00 186.00 174.00 164.00 153.00 142.00 
98.00 310.00 581.00 739.00 805.00 872.00 976.00 1141.00 1302.00 1406.00 1473.00 1530.00 1606.00 1709.00 1801.00 1873.00 1943.00 1996.00 2026.00 2046.00 2044.00 2017.00 1973.00 1916.00 1879.00 1869.00 1848.00 1808.00 1758.00 1689.00 1615.00 1541.00 1461.00
 1360.00 1252.00 1162.00 1092.00
434.00 434.00 433.00 431.00 428.00 425.00 420.00 415.00 409.00 403.00 396.00 388.00 380.00 372.00 364.00 355.00 346.00 336.00 327.00 317.00 307.00 296.00 286.00 275.00 264.00 253.00 242.00 231.00 219.00 208.00 197.00 186.00 174.00 164.00 153.00 142.00 
120.00 321.00 585.00 734.00 787.00 867.00 1010.00 1180.00 1314.00 1388.00 1437.00 1496.00 1586.00 1710.00 1810.00 1883.00 1945.00 1982.00 2000.00 1998.00 1985.00 1966.00 1941.00 1903.00 1872.00 1879.00 1867.00 1828.00 1774.00 1708.00 1635.00 1559.00 
1477.00 1373.00 1261.00 1166.00 1092.00
434.00 434.00 433.00 431.00 428.00 425.00 420.00 415.00 409.00 403.00 396.00 388.00 380.00 372.00 364.00 355.00 346.00 336.00 327.00 317.00 307.00 296.00 286.00 275.00 264.00 253.00 242.00 231.00 219.00 208.00 197.00 186.00 174.00 164.00 153.00 142.00 
108.00 336.00 617.00 743.00 798.00 881.00 1009.00 1154.00 1273.00 1353.00 1407.00 1463.00 1560.00 1679.00 1771.00 1831.00 1877.00 1908.00 1923.00 1925.00 1926.00 1923.00 1914.00 1893.00 1885.00 1902.00 1892.00 1853.00 1793.00 1725.00 1649.00 1570.00 
1480.00 1376.00 1267.00 1170.00 1092.00
434.00 434.00 433.00 431.00 428.00 425.00 420.00 415.00 409.00 403.00 396.00 388.00 380.00 372.00 364.00 355.00 346.00 336.00 327.00 317.00 307.00 296.00 286.00 275.00 264.00 253.00 242.00 231.00 219.00 208.00 197.00 186.00 174.00 164.00 153.00 142.00 
96.00 350.00 649.00 751.00 809.00 895.00 1007.00 1128.00 1232.00 1318.00 1377.00 1430.00 1534.00 1647.00 1732.00 1779.00 1809.00 1833.00 1845.00 1852.00 1866.00 1880.00 1887.00 1883.00 1898.00 1924.00 1917.00 1877.00 1811.00 1742.00 1662.00 1580.00 
1483.00 1378.00 1272.00 1174.00 1092.00
434.00 434.00 433.00 431.00 428.00 425.00 420.00 415.00 409.00 403.00 396.00 388.00 380.00 372.00 364.00 355.00 346.00 336.00 327.00 317.00 307.00 296.00 286.00 275.00 264.00 253.00 242.00 231.00 219.00 208.00 197.00 186.00 174.00 164.00 153.00 142.00 
83.00 330.00 628.00 738.00 798.00 876.00 977.00 1096.00 1206.00 1298.00 1366.00 1428.00 1526.00 1626.00 1703.00 1750.00 1782.00 1809.00 1825.00 1835.00 1849.00 1862.00 1864.00 1869.00 1885.00 1911.00 1905.00 1867.00 1805.00 1733.00 1650.00 1567.00 1472.00
 1369.00 1266.00 1170.00 1092.00
434.00 434.00 433.00 431.00 428.00 425.00 420.00 415.00 409.00 403.00 396.00 388.00 380.00 372.00 364.00 355.00 346.00 336.00 327.00 317.00 307.00 296.00 286.00 275.00 264.00 253.00 242.00 231.00 219.00 208.00 197.00 186.00 174.00 164.00 153.00 142.00 
70.00 309.00 607.00 726.00 787.00 857.00 947.00 1065.00 1180.00 1278.00 1355.00 1425.00 1518.00 1606.00 1674.00 1722.00 1756.00 1784.00 1804.00 1818.00 1831.00 1844.00 1842.00 1855.00 1872.00 1899.00 1893.00 1856.00 1800.00 1724.00 1637.00 1555.00 1460.00
 1361.00 1260.00 1166.00 1092.00
434.00 434.00 433.00 431.00 428.00 425.00 420.00 415.00 409.00 403.00 396.00 388.00 380.00 372.00 364.00 355.00 346.00 336.00 327.00 317.00 307.00 296.00 286.00 275.00 264.00 253.00 242.00 231.00 219.00 208.00 197.00 186.00 174.00 164.00 153.00 142.00 
57.00 288.00 585.00 713.00 776.00 838.00 917.00 1033.00 1153.00 1257.00 1343.00 1422.00 1509.00 1585.00 1645.00 1693.00 1729.00 1759.00 1783.00 1801.00 1813.00 1825.00 1819.00 1840.00 1858.00 1886.00 1881.00 1845.00 1794.00 1715.00 1624.00 1542.00 1448.00
 1352.00 1254.00 1162.00 1092.00
434.00 434.00 433.00 431.00 428.00 425.00 420.00 415.00 409.00 403.00 396.00 388.00 380.00 372.00 364.00 355.00 346.00 336.00 327.00 317.00 307.00 296.00 286.00 275.00 264.00 253.00 242.00 231.00 219.00 208.00 197.00 186.00 174.00 164.00 153.00 142.00 
44.00 268.00 564.00 700.00 765.00 819.00 887.00 1001.00 1127.00 1237.00 1332.00 1420.00 1501.00 1564.00 1616.00 1664.00 1702.00 1735.00 1763.00 1784.00 1796.00 1807.00 1796.00 1826.00 1845.00 1873.00 1869.00 1835.00 1788.00 1706.00 1612.00 1529.00 1437.00
 1343.00 1248.00 1158.00 1092.00
434.00 434.00 433.00 431.00 428.00 425.00 420.00 415.00 409.00 403.00 396.00 388.00 380.00 372.00 364.00 355.00 346.00 336.00 327.00 317.00 307.00 296.00 286.00 275.00 264.00 253.00 242.00 231.00 219.00 208.00 197.00 186.00 174.00 164.00 153.00 142.00 
51.00 294.00 578.00 703.00 767.00 829.00 902.00 1020.00 1149.00 1254.00 1352.00 1444.00 1532.00 1607.00 1674.00 1734.00 1775.00 1803.00 1827.00 1841.00 1851.00 1860.00 1845.00 1859.00 1862.00 1869.00 1855.00 1820.00 1776.00 1700.00 1604.00 1520.00 1432.00
 1341.00 1248.00 1152.00 1092.00
434.00 434.00 433.00 431.00 428.00 425.00 420.00 415.00 409.00 403.00 396.00 388.00 380.00 372.00 364.00 355.00 346.00 336.00 327.00 317.00 307.00 296.00 286.00 275.00 264.00 253.00 242.00 231.00 219.00 208.00 197.00 186.00 174.00 164.00 153.00 142.00 
59.00 320.00 591.00 707.00 769.00 840.00 918.00 1039.00 1170.00 1272.00 1371.00 1469.00 1563.00 1650.00 1732.00 1803.00 1848.00 1871.00 1891.00 1897.00 1907.00 1912.00 1894.00 1891.00 1879.00 1865.00 1840.00 1806.00 1764.00 1694.00 1596.00 1511.00 1426.00
 1338.00 1248.00 1147.00 1092.00
434.00 434.00 433.00 431.00 428.00 425.00 420.00 415.00 409.00 403.00 396.00 388.00 380.00 372.00 364.00 355.00 346.00 336.00 327.00 317.00 307.00 296.00 286.00 275.00 264.00 253.00 242.00 231.00 219.00 208.00 197.00 186.00 174.00 164.00 153.00 142.00 
66.00 346.00 605.00 710.00 770.00 850.00 933.00 1058.00 1192.00 1289.00 1391.00 1493.00 1594.00 1692.00 1789.00 1873.00 1920.00 1938.00 1954.00 1954.00 1962.00 1965.00 1943.00 1924.00 1896.00 1860.00 1826.00 1791.00 1751.00 1688.00 1587.00 1501.00 1421.00
 1336.00 1247.00 1141.00 1092.00
434.00 434.00 433.00 431.00 428.00 425.00 420.00 415.00 409.00 403.00 396.00 388.00 380.00 372.00 364.00 355.00 346.00 336.00 327.00 317.00 307.00 296.00 286.00 275.00 264.00 253.00 242.00 231.00 219.00 208.00 197.00 186.00 174.00 164.00 153.00 142.00 
73.00 372.00 618.00 713.00 772.00 860.00 948.00 1077.00 1213.00 1306.00 1410.00 1517.00 1625.00 1735.00 1847.00 1942.00 1993.00 2006.00 2018.00 2010.00 2017.00 2017.00 1992.00 1956.00 1913.00 1856.00 1811.00 1776.00 1739.00 1682.00 1579.00 1492.00 1415.00
 1333.00 1247.00 1135.00 1092.00
434.00 434.00 433.00 431.00 428.00 425.00 420.00 415.00 409.00 403.00 396.00 388.00 380.00 372.00 364.00 355.00 346.00 336.00 327.00 317.00 307.00 296.00 286.00 275.00 264.00 253.00 242.00 231.00 219.00 208.00 197.00 186.00 174.00 164.00 153.00 142.00 
66.00 309.00 570.00 708.00 769.00 847.00 940.00 1093.00 1246.00 1352.00 1447.00 1543.00 1647.00 1758.00 1879.00 1977.00 2035.00 2074.00 2105.00 2111.00 2108.00 2081.00 2034.00 1976.00 1892.00 1830.00 1797.00 1765.00 1723.00 1666.00 1577.00 1484.00 1404.00
 1322.00 1243.00 1131.00 1092.00
434.00 434.00 433.00 431.00 428.00 425.00 420.00 415.00 409.00 403.00 396.00 388.00 380.00 372.00 364.00 355.00 346.00 336.00 327.00 317.00 307.00 296.00 286.00 275.00 264.00 253.00 242.00 231.00 219.00 208.00 197.00 186.00 174.00 164.00 153.00 142.00 
59.00 246.00 521.00 702.00 765.00 834.00 931.00 1109.00 1279.00 1397.00 1484.00 1569.00 1668.00 1781.00 1911.00 2011.00 2077.00 2142.00 2192.00 2212.00 2198.00 2145.00 2075.00 1995.00 1870.00 1803.00 1783.00 1753.00 1706.00 1650.00 1574.00 1475.00 1392.00
 1311.00 1239.00 1126.00 1092.00
434.00 434.00 433.00 431.00 428.00 425.00 420.00 415.00 409.00 403.00 396.00 388.00 380.00 372.00 364.00 355.00 346.00 336.00 327.00 317.00 307.00 296.00 286.00 275.00 264.00 253.00 242.00 231.00 219.00 208.00 197.00 186.00 174.00 164.00 153.00 142.00 
59.00 270.00 508.00 692.00 787.00 881.00 995.00 1149.00 1293.00 1397.00 1473.00 1552.00 1653.00 1771.00 1904.00 1998.00 2057.00 2121.00 2167.00 2188.00 2189.00 2163.00 2106.00 2005.00 1890.00 1823.00 1791.00 1747.00 1693.00 1632.00 1555.00 1464.00 1385.00
 1306.00 1225.00 1124.00 1092.00
434.00 434.00 433.00 431.00 428.00 425.00 420.00 415.00 409.00 403.00 396.00 388.00 380.00 372.00 364.00 355.00 346.00 336.00 327.00 317.00 307.00 296.00 286.00 275.00 264.00 253.00 242.00 231.00 219.00 208.00 197.00 186.00 174.00 164.00 153.00 142.00 
59.00 294.00 494.00 681.00 808.00 928.00 1058.00 1188.00 1306.00 1397.00 1462.00 1535.00 1638.00 1761.00 1897.00 1984.00 2036.00 2099.00 2142.00 2163.00 2180.00 2181.00 2136.00 2014.00 1910.00 1843.00 1798.00 1741.00 1680.00 1613.00 1535.00 1452.00 
1377.00 1300.00 1211.00 1121.00 1092.00
434.00 434.00 433.00 431.00 428.00 425.00 420.00 415.00 409.00 403.00 396.00 388.00 380.00 372.00 364.00 355.00 346.00 336.00 327.00 317.00 307.00 296.00 286.00 275.00 264.00 253.00 242.00 231.00 219.00 208.00 197.00 186.00 174.00 164.00 153.00 142.00 
63.00 299.00 544.00 722.00 837.00 946.00 1065.00 1186.00 1293.00 1386.00 1461.00 1546.00 1652.00 1762.00 1874.00 1944.00 1990.00 2052.00 2087.00 2090.00 2100.00 2095.00 2056.00 1963.00 1890.00 1837.00 1801.00 1741.00 1681.00 1613.00 1535.00 1456.00 
1383.00 1306.00 1217.00 1130.00 1092.00
434.00 434.00 433.00 431.00 428.00 425.00 420.00 415.00 409.00 403.00 396.00 388.00 380.00 372.00 364.00 355.00 346.00 336.00 327.00 317.00 307.00 296.00 286.00 275.00 264.00 253.00 242.00 231.00 219.00 208.00 197.00 186.00 174.00 164.00 153.00 142.00 
67.00 304.00 594.00 762.00 865.00 963.00 1073.00 1184.00 1280.00 1375.00 1460.00 1557.00 1666.00 1764.00 1852.00 1904.00 1945.00 2004.00 2033.00 2017.00 2019.00 2009.00 1976.00 1911.00 1871.00 1830.00 1804.00 1741.00 1682.00 1613.00 1535.00 1461.00 
1389.00 1311.00 1224.00 1140.00 1092.00
434.00 434.00 433.00 431.00 428.00 425.00 420.00 415.00 409.00 403.00 396.00 388.00 380.00 372.00 364.00 355.00 346.00 336.00 327.00 317.00 307.00 296.00 286.00 275.00 264.00 253.00 242.00 231.00 219.00 208.00 197.00 186.00 174.00 164.00 153.00 142.00 
71.00 309.00 644.00 803.00 894.00 981.00 1080.00 1182.00 1266.00 1363.00 1458.00 1568.00 1679.00 1765.00 1829.00 1864.00 1899.00 1957.00 1978.00 1944.00 1939.00 1922.00 1895.00 1860.00 1851.00 1824.00 1807.00 1741.00 1683.00 1612.00 1534.00 1465.00 
1394.00 1317.00 1230.00 1149.00 1092.00
434.00 434.00 433.00 431.00 428.00 425.00 420.00 415.00 409.00 403.00 396.00 388.00 380.00 372.00 364.00 355.00 346.00 336.00 327.00 317.00 307.00 296.00 286.00 275.00 264.00 253.00 242.00 231.00 219.00 208.00 197.00 186.00 174.00 164.00 153.00 142.00 
75.00 314.00 694.00 843.00 922.00 998.00 1087.00 1180.00 1253.00 1352.00 1457.00 1579.00 1693.00 1766.00 1806.00 1824.00 1853.00 1909.00 1923.00 1871.00 1858.00 1836.00 1815.00 1808.00 1831.00 1817.00 1810.00 1741.00 1684.00 1612.00 1534.00 1469.00 
1400.00 1322.00 1236.00 1158.00 1092.00
