IESNA:LM-63-2002
[TEST]253P347
[TESTLAB]METALUX LABORATORIES
[ISSUEDATE]05/12/08
[MANUFAC]COOPER LIGHTING - SHAPER
[LUMCAT]1220-XX-44-CFL/4/60-T5C/1/40
[LUMINAIRE]SHAPER 44 INCH 1220 SERIES DIRECT/INDIRECT INDOOR PENDANT FIXTURE
[MORE]WITH DEEP DIFFUSING BOWL AND 6" APERTURE
[LAMP]FOUR 60 WATT PLH COMPACT FLUORESCENT LAMPS AND ONE 40 WATT T5 CIRCLINE
[MORE](4)PLH60/830 - 4000 LUMENS AND (1)TL5C40W/830 - 3300 LUMENS
[OTHER]PRORATED FROM TEST NO: 253P347
TILT=NONE
1 19300 1 73 19 1 1 -3.666667 -3.666667 1.333333
1 1 43
0 2.5 5 7.5 10 12.5 15 17.5 20 22.5
25 27.5 30 32.5 35 37.5 40 42.5 45 47.5
50 52.5 55 57.5 60 62.5 65 67.5 70 72.5
75 77.5 80 82.5 85 87.5 90 92.5 95 97.5
100 102.5 105 107.5 110 112.5 115 117.5 120 122.5
125 127.5 130 132.5 135 137.5 140 142.5 145 147.5
150 152.5 155 157.5 160 162.5 165 167.5 170 172.5
175 177.5 180
0 5 10 15 20 25 30 35 40 45
50 55 60 65 70 75 80 85 90
332 332 331 330 328 326 322 319 314 309
304 298 292 286 280 273 266 259 252 244
236 229 220 212 204 196 187 179 170 162
154 145 137 128 120 112 12 349.3 820 1160
1379.3 1559.3 1835.3 2079.3 2294 2450.7 2538.7 2541.3 2548 2598.7
2685.3 2740 2787.3 2816 2783.3 2709.3 2653.3 2574.7 2502 2462
2418.7 2343.3 2303.3 2253.3 2198 2142 2082.7 2026.7 1980.7 1910.7
1837.3 1767.3 1690.7
332 332 331 330 328 326 322 319 314 309
304 298 292 286 280 273 266 259 252 244
236 229 220 212 204 196 187 179 170 162
154 145 137 128 120 112 10 348.7 819.3 1157.3
1394 1581.3 1841.3 2080 2293.3 2462.7 2566 2593.3 2621.3 2684
2755.3 2787.3 2818 2844 2823.3 2766.7 2717.3 2651.3 2578.7 2524
2472.7 2401.3 2354.7 2294.7 2231.3 2171.3 2108.7 2048.7 1995.3 1921.3
1842.7 1768 1690.7
332 332 331 330 328 326 322 319 314 309
304 298 292 286 280 273 266 259 252 244
236 229 220 212 204 196 187 179 170 162
154 145 137 128 120 112 9 348 818.7 1155.3
1408.7 1603.3 1848 2080.7 2293.3 2474.7 2594 2646 2695.3 2770
2825.3 2835.3 2848 2872.7 2862.7 2824 2780.7 2728 2655.3 2585.3
2527.3 2459.3 2406.7 2335.3 2265.3 2200.7 2134.7 2070 2010 1932
1848 1768.7 1690.7
332 332 331 330 328 326 322 319 314 309
304 298 292 286 280 273 266 259 252 244
236 229 220 212 204 196 187 179 170 162
154 145 137 128 120 112 7 347.3 818 1152.7
1424 1625.3 1854 2081.3 2292.7 2486 2621.3 2698 2768.7 2855.3
2895.3 2882.7 2878.7 2900.7 2902.7 2881.3 2844.7 2804.7 2732 2647.3
2581.3 2517.3 2458 2376.7 2298.7 2230.7 2160.7 2092 2025.3 1942.7
1854 1769.3 1690.7
332 332 331 330 328 326 322 319 314 309
304 298 292 286 280 273 266 259 252 244
236 229 220 212 204 196 187 179 170 162
154 145 137 128 120 112 6 346.7 817.3 1150.7
1438.7 1647.3 1860 2082 2292 2498 2648.7 2750.7 2842.7 2941.3
2965.3 2930 2908.7 2929.3 2942 2938.7 2908 2881.3 2808.7 2709.3
2635.3 2575.3 2509.3 2417.3 2332.7 2260 2186.7 2114 2040 1953.3
1859.3 1770 1690.7
332 332 331 330 328 326 322 319 314 309
304 298 292 286 280 273 266 259 252 244
236 229 220 212 204 196 187 179 170 162
154 145 137 128 120 112 5 333.3 794.7 1127.3
1425.3 1640 1840.7 2058.7 2265.3 2474 2643.3 2772.7 2880.7 2983.3
3004.7 2968 2944 2960 2974.7 2975.3 2953.3 2930.7 2859.3 2761.3
2688.7 2624.7 2547.3 2449.3 2360 2284.7 2209.3 2131.3 2051.3 1961.3
1863.3 1772 1690.7
332 332 331 330 328 326 322 319 314 309
304 298 292 286 280 273 266 259 252 244
236 229 220 212 204 196 187 179 170 162
154 145 137 128 120 112 5 306 750.7 1083.3
1383.3 1604 1794.7 2010 2211.3 2414 2605.3 2765.3 2882.7 2982
3012 2996 2983.3 2994 3000 2992 2979.3 2954 2884 2804
2741.3 2664 2571.3 2471.3 2381.3 2304 2228.7 2145.3 2059.3 1966
1866.7 1775.3 1690.7
332 332 331 330 328 326 322 319 314 309
304 298 292 286 280 273 266 259 252 244
236 229 220 212 204 196 187 179 170 162
154 145 137 128 120 112 4 278.7 706 1038.7
1342 1567.3 1748.7 1961.3 2157.3 2354.7 2566.7 2757.3 2884.7 2981.3
3020 3024 3022.7 3027.3 3024.7 3008.7 3005.3 2977.3 2908 2847.3
2794 2703.3 2594.7 2494 2403.3 2323.3 2248 2158.7 2068 1970.7
1870 1778.7 1690.7
332 332 331 330 328 326 322 319 314 309
304 298 292 286 280 273 266 259 252 244
236 229 220 212 204 196 187 179 170 162
154 145 137 128 120 112 4 251.3 662 994.7
1300 1531.3 1702.7 1912.7 2103.3 2294.7 2528.7 2750 2886.7 2980
3027.3 3052 3062.7 3061.3 3050 3025.3 3031.3 3000.7 2932.7 2890
2846 2743.3 2618.7 2516 2424.7 2342.7 2267.3 2172.7 2076 1975.3
1873.3 1782 1690.7
332 332 331 330 328 326 322 319 314 309
304 298 292 286 280 273 266 259 252 244
236 229 220 212 204 196 187 179 170 162
154 145 137 128 120 112 4 224 618 950.7
1258.7 1495.3 1656.7 1864 2049.3 2234.7 2490 2742 2888.7 2978.7
3035.3 3080 3102 3094.7 3075.3 3042 3057.3 3024 2956.7 2932.7
2898.7 2782.7 2642.7 2538.7 2446 2362 2286.7 2186 2084 1980
1876.7 1785.3 1690.7
332 332 331 330 328 326 322 319 314 309
304 298 292 286 280 273 266 259 252 244
236 229 220 212 204 196 187 179 170 162
154 145 137 128 120 112 6 242.7 641.3 987.3
1298.7 1520.7 1680.7 1890 2082.7 2270.7 2512 2748.7 2902 3007.3
3067.3 3101.3 3110 3092.7 3066.7 3034.7 3042.7 2998 2951.3 2934
2878 2765.3 2636 2534 2432.7 2347.3 2269.3 2173.3 2076 1975.3
1874.7 1782.7 1690.7
332 332 331 330 328 326 322 319 314 309
304 298 292 286 280 273 266 259 252 244
236 229 220 212 204 196 187 179 170 162
154 145 137 128 120 112 8 262 664.7 1024.7
1338.7 1546 1704.7 1916.7 2116.7 2306 2534 2755.3 2914.7 3036
3099.3 3122 3118 3091.3 3058.7 3027.3 3028 2971.3 2946 2934.7
2856.7 2748 2628.7 2529.3 2419.3 2332.7 2252.7 2160.7 2068 1971.3
1873.3 1780.7 1690.7
332 332 331 330 328 326 322 319 314 309
304 298 292 286 280 273 266 259 252 244
236 229 220 212 204 196 187 179 170 162
154 145 137 128 120 112 9 280.7 688 1061.3
1378.7 1571.3 1728 1942.7 2150 2342 2556 2762 2928 3064.7
3130.7 3143.3 3126 3089.3 3050 3020 3013.3 2945.3 2940.7 2936
2836 2730 2622 2524.7 2405.3 2318 2235.3 2148 2059.3 1966.7
1871.3 1778 1690.7
332 332 331 330 328 326 322 319 314 309
304 298 292 286 280 273 266 259 252 244
236 229 220 212 204 196 187 179 170 162
154 145 137 128 120 112 11 300 711.3 1098
1418.7 1596.7 1752 1968.7 2184 2377.3 2578 2768.7 2940.7 3093.3
3162.7 3164 3134 3087.3 3041.3 3012.7 2998.7 2919.3 2935.3 2936.7
2815.3 2712.7 2614.7 2520 2392 2303.3 2218.7 2135.3 2051.3 1962
1869.3 1776 1690.7
332 332 331 330 328 326 322 319 314 309
304 298 292 286 280 273 266 259 252 244
236 229 220 212 204 196 187 179 170 162
154 145 137 128 120 112 12 314 733.3 1121.3
1432 1604 1772 1992.7 2211.3 2401.3 2583.3 2746.7 2902.7 3051.3
3124 3126.7 3099.3 3056.7 3009.3 2975.3 2954 2869.3 2884.7 2884.7
2762 2664 2577.3 2488.7 2364.7 2278.7 2196 2118 2040 1954.7
1865.3 1774 1690.7
332 332 331 330 328 326 322 319 314 309
304 298 292 286 280 273 266 259 252 244
236 229 220 212 204 196 187 179 170 162
154 145 137 128 120 112 12 322.7 755.3 1131.3
1418.7 1592.7 1788 2014.7 2232 2414 2572 2695.3 2814 2938
3014 3030 3021.3 2996.7 2952.7 2908.7 2878.7 2795.3 2789.3 2778.7
2676 2584 2508.7 2430 2322.7 2244.7 2167.3 2095.3 2025.3 1943.3
1858 1772 1690.7
332 332 331 330 328 326 322 319 314 309
304 298 292 286 280 273 266 259 252 244
236 229 220 212 204 196 187 179 170 162
154 145 137 128 120 112 12 331.3 776.7 1140.7
1406 1581.3 1803.3 2036 2252.7 2426 2560.7 2644 2725.3 2825.3
2904.7 2933.3 2943.3 2936 2896 2842.7 2803.3 2722 2693.3 2673.3
2590 2503.3 2440 2370.7 2281.3 2210.7 2139.3 2072 2010 1932.7
1851.3 1770.7 1690.7
332 332 331 330 328 326 322 319 314 309
304 298 292 286 280 273 266 259 252 244
236 229 220 212 204 196 187 179 170 162
154 145 137 128 120 112 12 340.7 798.7 1150.7
1392.7 1570.7 1819.3 2058 2273.3 2438.7 2550 2592.7 2636.7 2712
2794.7 2836.7 2865.3 2876 2840 2776 2728.7 2648 2598 2567.3
2504.7 2423.3 2372 2312 2239.3 2176 2110.7 2049.3 1995.3 1921.3
1844 1768.7 1690.7
332 332 331 330 328 326 322 319 314 309
304 298 292 286 280 273 266 259 252 244
236 229 220 212 204 196 187 179 170 162
154 145 137 128 120 112 12 349.3 820 1160
1379.3 1559.3 1835.3 2079.3 2294 2450.7 2538.7 2541.3 2548 2598.7
2685.3 2740 2787.3 2816 2783.3 2709.3 2653.3 2574.7 2502 2462
2418.7 2343.3 2303.3 2253.3 2198 2142 2082.7 2026.7 1980.7 1910.7
1837.3 1767.3 1690.7
