IESNA:LM-63-2002
[TEST]25485     
[TESTLAB]LIGHTING SCIENCES, INC.                            
[ISSUEDATE] 7/14/2009
[MANUFAC]COOPER LIGHTING - SHAPER                             
[LUMCAT]103-CFL/2/39-120V-SWH                                                           
[LUMINAIRE]WHITE FABRIC SHADE RECTILINEAR WALL SCONCE                                           
[LAMP]TWO SYLVANIA 36 WATT CFL LAMPS                                                  
[LAMPCAT]FT36DL/830/ECO. LUMEN RATING = 5800 LMS.                                        
[OTHER]ONE UNIVERSAL 239UNV-D BALLAST OPERATING AT 120 VAC AND 71 WATTS                
TILT=NONE
1
      5800
1
73
17
1
1
  0.33
  2.17
  0.71
1
1
   71.0000
0 2.5 5 7.5 10 12.5 15 17.5 20 22.5 25 27.5 30 32.5 35 37.5
40 42.5 45 47.5 50 52.5 55 57.5 60 62.5 65 67.5 70 72.5 75
77.5 80 82.5 85 87.5 90 92.5 95 97.5 100 102.5 105 107.5 110
112.5 115 117.5 120 122.5 125 127.5 130 132.5 135 137.5 140
142.5 145 147.5 150 152.5 155 157.5 160 162.5 165 167.5 170
172.5 175 177.5 180
0 22.5 45 67.5 90 112.5 135 157.5 180 202.5 225 247.5
270 292.5 315 337.5 360
     354.6      346.6      396.8      463.7      542.0      615.8      689.9      741.5      744.7      738.3
     749.8      766.1      773.7      767.2      750.0      721.4      682.5      639.3      595.2      556.9
     517.4      480.6      447.3      422.5      403.1      392.9      393.7      398.6      397.9      389.2
     382.8      380.1      382.8      385.8      388.2      389.2      388.2      380.4      379.2      378.1
     374.0      374.8      381.1      389.2      391.7      388.7      396.1      411.4      433.2      460.3
     493.4      529.9      565.4      605.5      650.3      689.1      725.8      750.0      767.4      773.3
     768.9      757.0      738.3      739.9      750.3      750.0      703.3      637.7      567.7      492.3
     421.1      361.2      342.9
     354.6      341.2      382.4      443.9      514.1      581.0      648.5      712.5      740.3      731.1
     726.2      741.3      752.8      754.5      742.4      722.5      691.9      649.9      605.1      561.2
     520.9      481.0      444.5      414.6      388.1      369.3      360.8      364.2      365.5      359.0
     350.9      344.3      346.4      348.6      349.5      350.6      350.9      354.5      352.2      351.4
     347.8      350.9      358.6      367.3      367.3      368.2      381.5      402.4      425.9      457.6
     492.9      531.0      568.8      611.0      654.6      691.9      724.4      745.8      760.2      761.6
     754.4      739.1      726.2      736.3      748.3      735.0      682.2      619.7      556.6      486.0
     417.8      360.1      342.9
     354.6      334.7      356.7      393.2      442.9      492.3      542.9      588.2      634.3      676.4
     696.0      684.1      671.5      670.2      675.5      673.5      662.2      642.9      617.7      583.2
     539.1      494.9      448.8      407.4      367.3      333.7      304.0      282.0      267.3      266.0
     263.7      252.7      245.5      245.3      246.1      246.0      246.4      261.9      259.9      259.9
     261.4      270.8      278.8      280.6      294.1      316.7      342.3      376.1      411.2      452.2
     492.3      538.4      581.0      618.8      648.5      669.7      685.5      691.1      689.5      684.3
     682.1      695.8      710.9      710.0      681.1      636.8      592.9      544.7      497.4      443.9
     394.5      353.6      342.9
     354.6      336.4      335.1      346.1      363.4      380.6      401.1      422.9      442.9      463.2
     479.9      497.3      512.6      523.8      536.2      540.7      535.7      518.8      501.5      484.0
     469.3      453.7      432.8      407.8      375.9      342.3      301.1      258.1      219.4      182.2
     154.6      135.7      127.7      120.3      115.6      115.2      115.2      135.2      134.9      139.4
     148.0      159.1      181.8      210.4      248.2      287.4      330.6      373.6      407.4      437.6
     462.6      480.6      495.4      507.1      519.5      537.7      557.6      575.1      581.4      574.9
     561.8      550.4      534.1      517.7      497.4      476.0      454.9      429.5      404.2      379.0
     357.2      341.4      342.9
     354.6      348.9      348.7      348.9      349.8      351.3      351.1      350.8      349.4      346.1
     343.7      339.3      334.3      328.4      321.3      313.8      306.2      296.9      286.0      275.6
     262.8      249.5      234.9      219.9      203.0      186.4      167.5      147.5      127.1      104.6
      84.0       64.2       46.8       33.2       26.7       22.6       21.3       29.1       33.9       42.8
      58.7       78.1       99.7      122.2      143.5      164.0      182.2      200.8      216.2      232.4
     245.9      259.2      271.4      282.6      292.2      301.6      309.6      316.5      322.7      327.7
     333.0      336.8      339.6      342.6      344.3      345.8      345.2      345.0      344.5      343.2
     341.3      340.5      342.9
     354.6      368.2      387.1      404.7      423.4      441.2      457.0      472.4      487.1      497.0
     506.7      513.2      517.3      518.6      516.2      506.9      487.1      460.5      432.8      403.1
     372.5      344.8      314.8      285.6      257.2      228.0      202.2      182.2      164.4      147.8
     130.5      111.1       90.6       71.9       56.8       50.1       50.7       52.6       62.7       76.2
      86.6      103.0      121.6      145.1      174.6      203.8      237.2      270.8      304.2      336.2
     369.8      403.6      433.1      460.1      480.4      495.7      505.1      513.4      516.3      514.3
     509.8      502.6      493.7      484.2      471.1      457.1      443.2      426.3      409.6      391.7
     371.8      350.4      342.9
     354.6      386.7      424.3      459.0      495.2      527.6      554.9      577.1      595.4      604.4
     594.5      573.5      547.6      522.4      496.1      470.4      445.7      419.8      393.9      366.2
     340.9      319.5      299.8      286.1      272.0      257.0      241.0      225.7      207.5      183.3
     160.4      140.8      123.9      109.6      102.1       99.4       97.6      100.1      103.2      110.2
     125.1      141.3      150.2      161.1      177.7      195.0      211.9      234.1      260.2      291.2
     321.4      355.0      388.2      422.5      455.6      484.8      518.4      549.3      578.0      601.6
     613.6      617.2      612.5      602.6      586.2      562.3      535.7      505.4      472.0      436.4
     401.7      365.1      342.9
     354.6      400.9      449.7      496.5      540.4      575.4      605.7      624.6      617.2      597.4
     571.5      547.0      522.7      497.7      474.9      450.6      423.6      398.4      378.4      358.6
     344.3      333.6      320.5      307.8      293.0      278.0      259.5      237.4      214.4      193.5
     174.8      154.3      141.5      132.9      129.3      126.2      123.9      127.5      130.2      133.4
     140.8      153.5      171.2      184.1      191.3      203.2      217.5      234.1      251.4      270.0
     295.0      325.0      355.1      388.4      421.8      454.5      488.7      520.7      550.4      581.4
     612.5      638.6      651.4      651.9      639.7      620.4      592.9      556.2      516.8      472.0
     426.1      379.0      342.9
     354.6      403.4      455.4      504.2      547.0      581.4      610.0      620.8      604.6      581.0
     558.0      535.1      513.8      491.2      468.8      442.0      417.0      395.9      376.1      360.6
     349.5      338.9      325.6      311.4      296.6      281.5      259.9      236.1      214.4      194.9
     175.7      157.5      145.5      139.7      138.3      135.2      132.1      136.3      139.7      142.2
     147.4      159.9      177.5      192.2      200.2      207.0      221.6      238.1      253.1      269.8
     290.3      318.0      347.3      381.2      413.9      448.8      483.5      514.8      545.2      573.1
     604.1      630.7      654.4      662.2      655.2      638.2      613.0      576.9      537.3      490.9
     442.5      392.3      342.9
     354.6      400.9      449.7      496.5      540.4      575.4      605.7      624.6      617.2      597.4
     571.5      547.0      522.7      497.7      474.9      450.6      423.6      398.4      378.4      358.6
     344.3      333.6      320.5      307.8      293.0      278.0      259.5      237.4      214.4      193.5
     174.8      154.3      141.5      132.9      129.3      126.2      123.9      127.5      130.2      133.4
     140.8      153.5      171.2      184.1      191.3      203.2      217.5      234.1      251.4      270.0
     295.0      325.0      355.1      388.4      421.8      454.5      488.7      520.7      550.4      581.4
     612.5      638.6      651.4      651.9      639.7      620.4      592.9      556.2      516.8      472.0
     426.1      379.0      342.9
     354.6      386.7      424.3      459.0      495.2      527.6      554.9      577.1      595.4      604.4
     594.5      573.5      547.6      522.4      496.1      470.4      445.7      419.8      393.9      366.2
     340.9      319.5      299.8      286.1      272.0      257.0      241.0      225.7      207.5      183.3
     160.4      140.8      123.9      109.6      102.1       99.4       97.6      100.1      103.2      110.2
     125.1      141.3      150.2      161.1      177.7      195.0      211.9      234.1      260.2      291.2
     321.4      355.0      388.2      422.5      455.6      484.8      518.4      549.3      578.0      601.6
     613.6      617.2      612.5      602.6      586.2      562.3      535.7      505.4      472.0      436.4
     401.7      365.1      342.9
     354.6      368.2      387.1      404.7      423.4      441.2      457.0      472.4      487.1      497.0
     506.7      513.2      517.3      518.6      516.2      506.9      487.1      460.5      432.8      403.1
     372.5      344.8      314.8      285.6      257.2      228.0      202.2      182.2      164.4      147.8
     130.5      111.1       90.6       71.9       56.8       50.1       50.7       52.6       62.7       76.2
      86.6      103.0      121.6      145.1      174.6      203.8      237.2      270.8      304.2      336.2
     369.8      403.6      433.1      460.1      480.4      495.7      505.1      513.4      516.3      514.3
     509.8      502.6      493.7      484.2      471.1      457.1      443.2      426.3      409.6      391.7
     371.8      350.4      342.9
     354.6      348.9      348.7      348.9      349.8      351.3      351.1      350.8      349.4      346.1
     343.7      339.3      334.3      328.4      321.3      313.8      306.2      296.9      286.0      275.6
     262.8      249.5      234.9      219.9      203.0      186.4      167.5      147.5      127.1      104.6
      84.0       64.2       46.8       33.2       26.7       22.6       21.3       29.1       33.9       42.8
      58.7       78.1       99.7      122.2      143.5      164.0      182.2      200.8      216.2      232.4
     245.9      259.2      271.4      282.6      292.2      301.6      309.6      316.5      322.7      327.7
     333.0      336.8      339.6      342.6      344.3      345.8      345.2      345.0      344.5      343.2
     341.3      340.5      342.9
     354.6      336.4      335.1      346.1      363.4      380.6      401.1      422.9      442.9      463.2
     479.9      497.3      512.6      523.8      536.2      540.7      535.7      518.8      501.5      484.0
     469.3      453.7      432.8      407.8      375.9      342.3      301.1      258.1      219.4      182.2
     154.6      135.7      127.7      120.3      115.6      115.2      115.2      135.2      134.9      139.4
     148.0      159.1      181.8      210.4      248.2      287.4      330.6      373.6      407.4      437.6
     462.6      480.6      495.4      507.1      519.5      537.7      557.6      575.1      581.4      574.9
     561.8      550.4      534.1      517.7      497.4      476.0      454.9      429.5      404.2      379.0
     357.2      341.4      342.9
     354.6      334.7      356.7      393.2      442.9      492.3      542.9      588.2      634.3      676.4
     696.0      684.1      671.5      670.2      675.5      673.5      662.2      642.9      617.7      583.2
     539.1      494.9      448.8      407.4      367.3      333.7      304.0      282.0      267.3      266.0
     263.7      252.7      245.5      245.3      246.1      246.0      246.4      261.9      259.9      259.9
     261.4      270.8      278.8      280.6      294.1      316.7      342.3      376.1      411.2      452.2
     492.3      538.4      581.0      618.8      648.5      669.7      685.5      691.1      689.5      684.3
     682.1      695.8      710.9      710.0      681.1      636.8      592.9      544.7      497.4      443.9
     394.5      353.6      342.9
     354.6      341.2      382.4      443.9      514.1      581.0      648.5      712.5      740.3      731.1
     726.2      741.3      752.8      754.5      742.4      722.5      691.9      649.9      605.1      561.2
     520.9      481.0      444.5      414.6      388.1      369.3      360.8      364.2      365.5      359.0
     350.9      344.3      346.4      348.6      349.5      350.6      350.9      354.5      352.2      351.4
     347.8      350.9      358.6      367.3      367.3      368.2      381.5      402.4      425.9      457.6
     492.9      531.0      568.8      611.0      654.6      691.9      724.4      745.8      760.2      761.6
     754.4      739.1      726.2      736.3      748.3      735.0      682.2      619.7      556.6      486.0
     417.8      360.1      342.9
     354.6      346.6      396.8      463.7      542.0      615.8      689.9      741.5      744.7      738.3
     749.8      766.1      773.7      767.2      750.0      721.4      682.5      639.3      595.2      556.9
     517.4      480.6      447.3      422.5      403.1      392.9      393.7      398.6      397.9      389.2
     382.8      380.1      382.8      385.8      388.2      389.2      388.2      380.4      379.2      378.1
     374.0      374.8      381.1      389.2      391.7      388.7      396.1      411.4      433.2      460.3
     493.4      529.9      565.4      605.5      650.3      689.1      725.8      750.0      767.4      773.3
     768.9      757.0      738.3      739.9      750.3      750.0      703.3      637.7      567.7      492.3
     421.1      361.2      342.9
