IESNA:LM-63-2002
[TEST]25484     
[TESTLAB]LIGHTING SCIENCES, INC.                            
[ISSUEDATE] 7/14/2009
[MANUFAC]COOPER LIGHTING - SHAPER                             
[LUMCAT]103-CFL/2/18-120V-CNK                                                           
[LUMINAIRE]DARK FABRIC SHADE RECTILINEAR WALL SCONCE                                            
[LAMP]TWO SYLVANIA 18 WATT CFL LAMPS                                                  
[LAMPCAT]FT18DL/830/RS/ECO. LUMEN RATING = 2500 LMS.                                     
[OTHER]ONE UNIVERSAL C218UNVSE BALLAST OPERATING AT 120 VAC AND 40 WATTS               
TILT=NONE
1
      2500
1
73
17
1
1
  0.33
  2.17
  0.71
1
1
   40.0000
0 2.5 5 7.5 10 12.5 15 17.5 20 22.5 25 27.5 30 32.5 35 37.5
40 42.5 45 47.5 50 52.5 55 57.5 60 62.5 65 67.5 70 72.5 75
77.5 80 82.5 85 87.5 90 92.5 95 97.5 100 102.5 105 107.5 110
112.5 115 117.5 120 122.5 125 127.5 130 132.5 135 137.5 140
142.5 145 147.5 150 152.5 155 157.5 160 162.5 165 167.5 170
172.5 175 177.5 180
0 22.5 45 67.5 90 112.5 135 157.5 180 202.5 225 247.5
270 292.5 315 337.5 360
     129.0      135.1      158.7      188.8      219.7      247.3      268.6      276.5      261.1      253.5
     256.3      258.1      259.1      258.3      247.7      226.1      201.6      175.3      153.9      130.1
     106.4       84.9       66.7       52.5       40.3       33.8       33.4       33.9       31.8       27.1
      22.4       18.6       19.2       19.2       18.6       17.8       18.1       18.1       18.4       17.6
      17.4       20.4       25.0       28.5       30.7       32.5       39.7       52.3       65.1       82.2
     103.0      125.0      144.5      166.3      192.8      215.6      236.9      252.3      257.7      256.3
     254.7      253.3      252.1      253.1      270.4      280.6      268.6      251.3      226.4      195.8
     168.2      143.3      124.5
     129.0      132.2      152.5      179.0      207.8      233.7      256.5      269.3      263.6      248.5
     245.7      247.1      247.7      248.1      245.5      234.0      213.0      188.0      163.7      142.2
     119.2       96.8       76.3       60.1       45.4       35.2       30.3       30.0       29.8       26.4
      21.4       17.2       16.0       16.0       15.2       15.0       15.0       15.4       15.8       15.6
      15.6       17.8       23.0       26.2       27.0       32.9       41.8       55.5       70.1       88.0
     109.2      131.0      151.1      175.0      198.7      220.8      238.7      246.5      248.3      247.1
     245.7      245.5      244.4      254.5      272.5      274.4      262.9      245.5      221.4      192.8
     164.9      142.2      124.5
     129.0      128.8      143.1      159.1      179.0      198.8      218.2      234.4      246.1      249.1
     243.1      229.6      222.8      220.6      219.6      218.8      215.2      207.0      195.4      176.7
     154.9      133.3      112.0       90.8       69.9       51.3       36.8       27.1       21.2       20.6
      19.0       14.4       10.6        9.6        8.8        9.0        8.4        8.6        9.0        8.4
      10.8       14.2       17.6       21.2       28.4       40.1       53.7       72.1       92.2      111.4
     131.9      153.9      175.7      194.6      205.6      214.0      217.2      217.5      218.2      219.0
     222.9      232.3      248.5      255.1      253.5      246.1      232.6      215.0      195.2      174.5
     154.5      139.1      124.5
     129.0      126.1      130.6      138.6      145.8      152.5      160.7      168.9      176.3      182.6
     188.8      192.0      193.4      191.5      186.2      179.7      172.7      164.9      158.7      154.3
     148.7      141.9      134.6      125.4      113.2       98.8       80.9       61.9       44.3       27.4
      16.0       10.4        7.8        5.2        4.0        3.8        3.0        2.6        3.0        5.2
       7.0       12.0       20.6       33.5       51.3       69.7       87.6      104.6      118.4      129.3
     138.2      145.5      149.9      154.9      161.7      167.5      177.2      185.2      194.2      200.2
     205.2      205.6      203.8      198.7      191.2      183.3      174.5      165.9      156.5      148.5
     140.8      132.8      124.5
     129.0      127.6      128.0      128.0      128.3      128.7      128.0      127.9      127.2      125.4
     125.0      123.4      121.6      120.1      118.2      115.2      113.0      109.5      105.2      100.5
      94.1       86.9       79.3       72.1       65.8       59.9       52.5       45.3       36.8       28.5
      21.0       13.8        8.0        3.5        1.9        1.3        1.3        0.7        1.0        3.6
       7.8       14.2       21.9       30.2       37.6       44.7       50.8       57.2       63.2       69.4
      77.2       84.9       90.8       97.5      102.5      107.4      110.7      112.9      115.4      116.4
     118.0      118.8      120.1      121.3      122.3      123.1      123.6      123.6      123.9      123.4
     123.1      122.7      124.5
     129.0      134.3      141.1      149.3      157.3      163.9      169.1      172.9      174.9      177.2
     177.9      179.0      178.5      177.9      179.0      178.5      177.1      172.7      163.9      153.1
     141.5      128.8      116.4      103.8       89.4       78.1       67.5       59.1       52.5       48.6
      44.1       37.5       29.2       21.0       15.2       11.8       11.4       12.0       15.8       19.2
      23.5       29.2       34.7       41.9       53.7       64.9       78.5       92.5      106.0      119.4
     131.8      145.5      156.7      165.7      171.3      174.9      176.1      176.7      175.4      175.8
     176.5      175.7      174.7      173.9      171.3      168.5      163.3      155.7      148.3      139.0
     132.8      124.8      124.5
     129.0      142.7      159.9      175.0      184.4      191.5      197.4      202.4      208.4      214.6
     218.8      213.4      204.2      192.0      179.3      168.1      155.7      142.5      129.7      120.3
     110.6      102.0       94.7       91.2       88.0       85.3       81.3       76.4       69.5       59.3
      50.7       41.9       35.0       30.7       26.6       24.4       24.0       24.4       26.4       29.6
      33.4       37.1       39.7       45.0       49.9       54.3       59.1       64.9       74.9       86.2
      98.4      111.4      123.6      137.3      150.9      163.1      175.7      188.0      201.2      210.4
     215.4      217.9      213.8      208.2      201.2      197.8      191.5      185.2      176.8      163.3
     144.7      127.8      124.5
     129.0      147.9      171.8      186.2      196.9      205.6      212.2      221.5      227.2      219.0
     208.4      195.1      184.4      172.1      158.5      145.4      136.5      126.8      118.6      111.8
     108.2      105.8      103.6      101.5       97.6       93.6       86.4       76.4       67.9       58.7
      50.5       44.1       39.2       35.3       33.2       31.4       30.0       30.0       32.1       33.5
      37.9       41.9       45.9       48.2       52.2       55.7       61.1       66.1       70.1       75.5
      81.4       92.6      104.2      117.0      130.0      142.2      155.5      169.3      182.1      193.4
     207.4      218.4      225.1      227.3      224.0      214.0      204.8      198.7      189.0      177.2
     157.9      133.2      124.5
     129.0      150.5      175.7      190.6      202.0      208.8      217.8      227.8      224.7      212.5
     198.7      186.8      173.9      160.7      148.9      139.1      129.6      122.1      115.2      111.4
     110.0      107.4      105.0      102.2       98.4       93.0       83.9       74.5       66.1       57.7
      50.1       44.7       40.5       37.0       35.0       33.4       31.4       32.5       33.8       36.0
      39.2       42.9       47.3       49.9       52.5       56.9       60.3       65.1       70.5       75.0
      79.3       86.7       97.4      109.4      121.2      135.0      148.7      162.3      174.9      187.0
     198.0      209.2      219.6      225.4      226.1      218.8      209.0      203.2      194.4      183.3
     164.3      137.7      124.5
     129.0      147.9      171.8      186.2      196.9      205.6      212.2      221.5      227.2      219.0
     208.4      195.1      184.4      172.1      158.5      145.4      136.5      126.8      118.6      111.8
     108.2      105.8      103.6      101.5       97.6       93.6       86.4       76.4       67.9       58.7
      50.5       44.1       39.2       35.3       33.2       31.4       30.0       30.0       32.1       33.5
      37.9       41.9       45.9       48.2       52.2       55.7       61.1       66.1       70.1       75.5
      81.4       92.6      104.2      117.0      130.0      142.2      155.5      169.3      182.1      193.4
     207.4      218.4      225.1      227.3      224.0      214.0      204.8      198.7      189.0      177.2
     157.9      133.2      124.5
     129.0      142.7      159.9      175.0      184.4      191.5      197.4      202.4      208.4      214.6
     218.8      213.4      204.2      192.0      179.3      168.1      155.7      142.5      129.7      120.3
     110.6      102.0       94.7       91.2       88.0       85.3       81.3       76.4       69.5       59.3
      50.7       41.9       35.0       30.7       26.6       24.4       24.0       24.4       26.4       29.6
      33.4       37.1       39.7       45.0       49.9       54.3       59.1       64.9       74.9       86.2
      98.4      111.4      123.6      137.3      150.9      163.1      175.7      188.0      201.2      210.4
     215.4      217.9      213.8      208.2      201.2      197.8      191.5      185.2      176.8      163.3
     144.7      127.8      124.5
     129.0      134.3      141.1      149.3      157.3      163.9      169.1      172.9      174.9      177.2
     177.9      179.0      178.5      177.9      179.0      178.5      177.1      172.7      163.9      153.1
     141.5      128.8      116.4      103.8       89.4       78.1       67.5       59.1       52.5       48.6
      44.1       37.5       29.2       21.0       15.2       11.8       11.4       12.0       15.8       19.2
      23.5       29.2       34.7       41.9       53.7       64.9       78.5       92.5      106.0      119.4
     131.8      145.5      156.7      165.7      171.3      174.9      176.1      176.7      175.4      175.8
     176.5      175.7      174.7      173.9      171.3      168.5      163.3      155.7      148.3      139.0
     132.8      124.8      124.5
     129.0      127.6      128.0      128.0      128.3      128.7      128.0      127.9      127.2      125.4
     125.0      123.4      121.6      120.1      118.2      115.2      113.0      109.5      105.2      100.5
      94.1       86.9       79.3       72.1       65.8       59.9       52.5       45.3       36.8       28.5
      21.0       13.8        8.0        3.5        1.9        1.3        1.3        0.7        1.0        3.6
       7.8       14.2       21.9       30.2       37.6       44.7       50.8       57.2       63.2       69.4
      77.2       84.9       90.8       97.5      102.5      107.4      110.7      112.9      115.4      116.4
     118.0      118.8      120.1      121.3      122.3      123.1      123.6      123.6      123.9      123.4
     123.1      122.7      124.5
     129.0      126.1      130.6      138.6      145.8      152.5      160.7      168.9      176.3      182.6
     188.8      192.0      193.4      191.5      186.2      179.7      172.7      164.9      158.7      154.3
     148.7      141.9      134.6      125.4      113.2       98.8       80.9       61.9       44.3       27.4
      16.0       10.4        7.8        5.2        4.0        3.8        3.0        2.6        3.0        5.2
       7.0       12.0       20.6       33.5       51.3       69.7       87.6      104.6      118.4      129.3
     138.2      145.5      149.9      154.9      161.7      167.5      177.2      185.2      194.2      200.2
     205.2      205.6      203.8      198.7      191.2      183.3      174.5      165.9      156.5      148.5
     140.8      132.8      124.5
     129.0      128.8      143.1      159.1      179.0      198.8      218.2      234.4      246.1      249.1
     243.1      229.6      222.8      220.6      219.6      218.8      215.2      207.0      195.4      176.7
     154.9      133.3      112.0       90.8       69.9       51.3       36.8       27.1       21.2       20.6
      19.0       14.4       10.6        9.6        8.8        9.0        8.4        8.6        9.0        8.4
      10.8       14.2       17.6       21.2       28.4       40.1       53.7       72.1       92.2      111.4
     131.9      153.9      175.7      194.6      205.6      214.0      217.2      217.5      218.2      219.0
     222.9      232.3      248.5      255.1      253.5      246.1      232.6      215.0      195.2      174.5
     154.5      139.1      124.5
     129.0      132.2      152.5      179.0      207.8      233.7      256.5      269.3      263.6      248.5
     245.7      247.1      247.7      248.1      245.5      234.0      213.0      188.0      163.7      142.2
     119.2       96.8       76.3       60.1       45.4       35.2       30.3       30.0       29.8       26.4
      21.4       17.2       16.0       16.0       15.2       15.0       15.0       15.4       15.8       15.6
      15.6       17.8       23.0       26.2       27.0       32.9       41.8       55.5       70.1       88.0
     109.2      131.0      151.1      175.0      198.7      220.8      238.7      246.5      248.3      247.1
     245.7      245.5      244.4      254.5      272.5      274.4      262.9      245.5      221.4      192.8
     164.9      142.2      124.5
     129.0      135.1      158.7      188.8      219.7      247.3      268.6      276.5      261.1      253.5
     256.3      258.1      259.1      258.3      247.7      226.1      201.6      175.3      153.9      130.1
     106.4       84.9       66.7       52.5       40.3       33.8       33.4       33.9       31.8       27.1
      22.4       18.6       19.2       19.2       18.6       17.8       18.1       18.1       18.4       17.6
      17.4       20.4       25.0       28.5       30.7       32.5       39.7       52.3       65.1       82.2
     103.0      125.0      144.5      166.3      192.8      215.6      236.9      252.3      257.7      256.3
     254.7      253.3      252.1      253.1      270.4      280.6      268.6      251.3      226.4      195.8
     168.2      143.3      124.5
