IESNA:LM-63-2002
[TEST]25482     
[TESTLAB]LIGHTING SCIENCES, INC.                            
[ISSUEDATE] 7/14/2009
[MANUFAC]COOPER LIGHTING - SHAPER                             
[LUMCAT]103-CFL/2/18-120V-SWH                                                           
[LUMINAIRE]WHITE FABRIC SHADE RECTILINEAR WALL SCONCE                                            
[LAMP]TWO SYLVANIA 18 WATT CFL LAMPS                                                  
[LAMPCAT]FT18DL/830/RS/ECO. LUMEN RATING = 2500 LMS.                                     
[OTHER]ONE UNIVERSAL C218UNVSE BALLAST OPERATING AT 120 VAC AND 40 WATTS               
TILT=NONE
1
      2500
1
73
17
1
1
  0.33
  2.17
  0.71
1
1
   40.0000
0 2.5 5 7.5 10 12.5 15 17.5 20 22.5 25 27.5 30 32.5 35 37.5
40 42.5 45 47.5 50 52.5 55 57.5 60 62.5 65 67.5 70 72.5 75
77.5 80 82.5 85 87.5 90 92.5 95 97.5 100 102.5 105 107.5 110
112.5 115 117.5 120 122.5 125 127.5 130 132.5 135 137.5 140
142.5 145 147.5 150 152.5 155 157.5 160 162.5 165 167.5 170
172.5 175 177.5 180
0 22.5 45 67.5 90 112.5 135 157.5 180 202.5 225 247.5
270 292.5 315 337.5 360
     139.5      142.2      170.9      207.4      245.7      279.3      308.2      329.7      324.1      313.8
     320.0      326.9      330.9      336.7      336.7      322.3      303.6      279.7      259.7      239.1
     218.8      199.4      183.9      170.7      160.3      155.3      156.9      159.1      160.1      155.9
     152.1      150.1      150.9      152.1      152.7      152.9      151.9      147.1      146.9      147.1
     146.1      145.5      148.7      152.1      151.5      149.3      153.9      161.7      172.9      185.4
     201.2      220.6      238.7      256.3      277.5      298.8      316.0      325.9      327.2      322.6
     316.0      312.4      305.6      304.0      316.5      321.5      301.2      277.2      247.7      211.6
     177.1      148.7      131.2
     139.5      140.1      165.9      196.6      231.1      264.9      294.8      314.7      324.1      311.8
     305.8      310.4      315.1      320.0      324.0      321.2      306.6      286.2      263.3      243.5
     223.2      203.2      184.3      169.3      156.3      146.3      141.8      144.0      144.9      143.1
     138.6      134.3      135.4      136.1      136.1      136.4      136.0      133.6      134.2      133.9
     132.8      134.7      138.2      140.0      139.1      139.5      147.3      156.9      169.5      183.6
     201.8      221.1      238.7      257.9      279.3      298.2      312.2      317.6      314.6      309.3
     304.4      300.6      295.8      303.8      317.4      312.4      293.8      270.3      241.2      207.2
     175.3      148.5      131.2
     139.5      135.1      152.1      173.9      198.2      220.7      245.1      266.7      284.4      295.0
     297.2      285.8      277.9      276.5      277.2      279.4      279.8      276.9      269.4      255.5
     235.8      215.4      194.0      174.5      153.5      135.7      120.6      109.6      104.2      103.8
     102.8       98.8       94.7       94.0       93.4       93.6       93.4       96.5       95.6       96.1
      97.4      100.4      102.8      103.6      109.4      120.2      131.9      148.3      166.9      185.2
     202.8      224.0      241.9      259.7      269.7      273.0      272.9      272.2      269.3      269.3
     269.0      278.8      292.8      294.8      287.2      273.6      256.9      234.1      210.4      186.2
     164.1      144.9      131.2
     139.5      134.2      139.0      147.3      156.7      166.4      175.8      186.2      195.8      203.8
     212.8      219.3      223.6      224.3      222.4      217.5      211.2      203.2      197.4      191.8
     186.8      181.8      174.9      166.1      155.1      142.5      125.2      106.2       86.7       69.2
      56.1       49.1       46.5       43.9       41.5       41.5       41.1       46.5       47.1       47.9
      50.9       53.9       62.1       76.3       93.4      110.4      127.5      144.3      156.7      167.3
     174.5      180.8      183.9      188.4      194.2      199.8      208.8      218.2      225.5      230.4
     231.8      229.6      224.6      215.4      207.2      196.6      186.6      175.7      164.9      154.9
     146.1      136.8      131.2
     139.5      135.9      136.3      137.5      138.2      138.5      138.8      138.2      137.5      137.5
     136.4      135.5      134.2      133.1      131.2      128.8      126.1      123.0      119.3      114.2
     107.5      100.8       92.5       85.4       78.4       71.5       63.6       55.8       47.1       38.0
      29.4       21.6       14.7        9.4        8.3        7.1        6.0        8.4        9.7       11.6
      16.6       23.8       32.1       40.4       49.1       55.6       63.0       69.3       75.9       82.3
      90.3       98.4      103.6      110.0      116.4      119.8      122.5      125.6      127.2      128.9
     129.7      130.3      131.3      131.9      132.6      133.2      132.8      132.8      132.2      131.5
     131.7      131.2      131.2
     139.5      147.7      157.7      166.4      176.3      185.8      192.6      197.0      200.8      203.6
     206.2      207.2      208.4      208.2      209.4      209.4      207.6      202.8      194.4      184.3
     171.7      157.9      144.1      130.4      115.0      102.2       89.3       79.3       71.0       64.7
      58.9       50.7       41.4       31.7       24.9       21.4       20.4       21.6       26.4       31.0
      36.5       42.9       51.5       61.7       75.3       90.3      104.8      121.6      136.8      152.9
     167.3      178.9      187.6      196.2      202.2      206.8      207.8      207.8      207.0      206.0
     205.2      204.6      201.6      196.2      192.6      187.6      182.5      172.2      163.5      152.9
     141.8      132.5      131.2
     139.5      158.3      179.4      197.6      210.2      220.6      229.7      236.1      243.3      251.3
     254.7      249.5      241.2      229.6      218.2      207.0      194.4      181.5      169.6      157.9
     147.1      137.7      129.2      123.4      118.8      113.8      107.6      101.6       92.6       81.4
      71.0       61.3       54.1       47.5       43.7       42.1       40.5       41.5       42.3       46.1
      51.9       57.9       61.5       66.3       72.7       80.0       87.2       96.2      107.6      122.0
     135.7      150.5      166.1      181.5      195.2      208.4      224.0      233.3      240.9      245.7
     249.3      250.9      246.9      239.0      231.1      224.2      216.6      207.0      196.2      179.7
     158.7      137.9      131.2
     139.5      164.3      193.0      212.4      226.5      238.5      246.9      258.7      262.7      255.3
     245.9      235.1      225.1      212.8      200.8      189.8      178.1      168.2      160.1      152.3
     147.3      143.7      139.7      134.6      129.6      123.6      114.4      104.6       93.4       83.9
      74.9       66.5       60.9       56.7       54.7       52.9       50.5       50.9       52.9       53.7
      57.5       63.5       69.9       74.6       78.2       82.8       89.4       96.6      102.2      109.6
     119.8      132.5      146.5      160.7      174.9      189.3      204.6      217.5      231.1      244.1
     252.5      257.5      260.7      261.3      255.9      244.5      234.1      224.0      211.0      196.6
     172.1      143.7      131.2
     139.5      166.9      197.0      216.4      231.9      241.7      253.1      263.5      258.7      247.7
     236.1      225.5      213.8      202.2      191.8      181.5      172.7      164.6      156.9      151.7
     148.7      145.1      140.5      135.7      130.0      122.5      112.2      102.2       92.2       83.1
      75.5       67.9       62.3       59.5       57.9       55.9       54.1       54.3       55.9       56.9
      59.5       64.5       70.3       76.7       80.4       83.6       90.0       96.2      102.0      108.8
     115.0      125.7      139.0      152.5      166.9      180.8      196.0      211.4      225.0      235.4
     247.7      253.3      257.1      258.7      258.5      250.5      238.3      229.1      216.1      201.0
     180.0      148.9      131.2
     139.5      164.3      193.0      212.4      226.5      238.5      246.9      258.7      262.7      255.3
     245.9      235.1      225.1      212.8      200.8      189.8      178.1      168.2      160.1      152.3
     147.3      143.7      139.7      134.6      129.6      123.6      114.4      104.6       93.4       83.9
      74.9       66.5       60.9       56.7       54.7       52.9       50.5       50.9       52.9       53.7
      57.5       63.5       69.9       74.6       78.2       82.8       89.4       96.6      102.2      109.6
     119.8      132.5      146.5      160.7      174.9      189.3      204.6      217.5      231.1      244.1
     252.5      257.5      260.7      261.3      255.9      244.5      234.1      224.0      211.0      196.6
     172.1      143.7      131.2
     139.5      158.3      179.4      197.6      210.2      220.6      229.7      236.1      243.3      251.3
     254.7      249.5      241.2      229.6      218.2      207.0      194.4      181.5      169.6      157.9
     147.1      137.7      129.2      123.4      118.8      113.8      107.6      101.6       92.6       81.4
      71.0       61.3       54.1       47.5       43.7       42.1       40.5       41.5       42.3       46.1
      51.9       57.9       61.5       66.3       72.7       80.0       87.2       96.2      107.6      122.0
     135.7      150.5      166.1      181.5      195.2      208.4      224.0      233.3      240.9      245.7
     249.3      250.9      246.9      239.0      231.1      224.2      216.6      207.0      196.2      179.7
     158.7      137.9      131.2
     139.5      147.7      157.7      166.4      176.3      185.8      192.6      197.0      200.8      203.6
     206.2      207.2      208.4      208.2      209.4      209.4      207.6      202.8      194.4      184.3
     171.7      157.9      144.1      130.4      115.0      102.2       89.3       79.3       71.0       64.7
      58.9       50.7       41.4       31.7       24.9       21.4       20.4       21.6       26.4       31.0
      36.5       42.9       51.5       61.7       75.3       90.3      104.8      121.6      136.8      152.9
     167.3      178.9      187.6      196.2      202.2      206.8      207.8      207.8      207.0      206.0
     205.2      204.6      201.6      196.2      192.6      187.6      182.5      172.2      163.5      152.9
     141.8      132.5      131.2
     139.5      135.9      136.3      137.5      138.2      138.5      138.8      138.2      137.5      137.5
     136.4      135.5      134.2      133.1      131.2      128.8      126.1      123.0      119.3      114.2
     107.5      100.8       92.5       85.4       78.4       71.5       63.6       55.8       47.1       38.0
      29.4       21.6       14.7        9.4        8.3        7.1        6.0        8.4        9.7       11.6
      16.6       23.8       32.1       40.4       49.1       55.6       63.0       69.3       75.9       82.3
      90.3       98.4      103.6      110.0      116.4      119.8      122.5      125.6      127.2      128.9
     129.7      130.3      131.3      131.9      132.6      133.2      132.8      132.8      132.2      131.5
     131.7      131.2      131.2
     139.5      134.2      139.0      147.3      156.7      166.4      175.8      186.2      195.8      203.8
     212.8      219.3      223.6      224.3      222.4      217.5      211.2      203.2      197.4      191.8
     186.8      181.8      174.9      166.1      155.1      142.5      125.2      106.2       86.7       69.2
      56.1       49.1       46.5       43.9       41.5       41.5       41.1       46.5       47.1       47.9
      50.9       53.9       62.1       76.3       93.4      110.4      127.5      144.3      156.7      167.3
     174.5      180.8      183.9      188.4      194.2      199.8      208.8      218.2      225.5      230.4
     231.8      229.6      224.6      215.4      207.2      196.6      186.6      175.7      164.9      154.9
     146.1      136.8      131.2
     139.5      135.1      152.1      173.9      198.2      220.7      245.1      266.7      284.4      295.0
     297.2      285.8      277.9      276.5      277.2      279.4      279.8      276.9      269.4      255.5
     235.8      215.4      194.0      174.5      153.5      135.7      120.6      109.6      104.2      103.8
     102.8       98.8       94.7       94.0       93.4       93.6       93.4       96.5       95.6       96.1
      97.4      100.4      102.8      103.6      109.4      120.2      131.9      148.3      166.9      185.2
     202.8      224.0      241.9      259.7      269.7      273.0      272.9      272.2      269.3      269.3
     269.0      278.8      292.8      294.8      287.2      273.6      256.9      234.1      210.4      186.2
     164.1      144.9      131.2
     139.5      140.1      165.9      196.6      231.1      264.9      294.8      314.7      324.1      311.8
     305.8      310.4      315.1      320.0      324.0      321.2      306.6      286.2      263.3      243.5
     223.2      203.2      184.3      169.3      156.3      146.3      141.8      144.0      144.9      143.1
     138.6      134.3      135.4      136.1      136.1      136.4      136.0      133.6      134.2      133.9
     132.8      134.7      138.2      140.0      139.1      139.5      147.3      156.9      169.5      183.6
     201.8      221.1      238.7      257.9      279.3      298.2      312.2      317.6      314.6      309.3
     304.4      300.6      295.8      303.8      317.4      312.4      293.8      270.3      241.2      207.2
     175.3      148.5      131.2
     139.5      142.2      170.9      207.4      245.7      279.3      308.2      329.7      324.1      313.8
     320.0      326.9      330.9      336.7      336.7      322.3      303.6      279.7      259.7      239.1
     218.8      199.4      183.9      170.7      160.3      155.3      156.9      159.1      160.1      155.9
     152.1      150.1      150.9      152.1      152.7      152.9      151.9      147.1      146.9      147.1
     146.1      145.5      148.7      152.1      151.5      149.3      153.9      161.7      172.9      185.4
     201.2      220.6      238.7      256.3      277.5      298.8      316.0      325.9      327.2      322.6
     316.0      312.4      305.6      304.0      316.5      321.5      301.2      277.2      247.7      211.6
     177.1      148.7      131.2
