IESNA:LM-63-2002
[TEST]25487     
[TESTLAB]LIGHTING SCIENCES, INC.                            
[ISSUEDATE] 7/14/2009
[MANUFAC]COOPER LIGHTING - SHAPER                             
[LUMCAT]103-CFL/2/39-120V-CNK                                                           
[LUMINAIRE]DARK FABRIC SHADE RECTILINEAR WALL SCONCE                                            
[LAMP]TWO SYLVANIA 36 WATT CFL LAMPS                                                  
[LAMPCAT]FT36DL/830/ECO. LUMEN RATING = 5800 LMS.                                        
[OTHER]ONE UNIVERSAL 239UNV-D BALLAST OPERATING AT 120 VAC AND 71 WATTS                
TILT=NONE
1
      5800
1
73
17
1
1
  0.33
  2.17
  0.71
1
1
   71.0000
0 2.5 5 7.5 10 12.5 15 17.5 20 22.5 25 27.5 30 32.5 35 37.5
40 42.5 45 47.5 50 52.5 55 57.5 60 62.5 65 67.5 70 72.5 75
77.5 80 82.5 85 87.5 90 92.5 95 97.5 100 102.5 105 107.5 110
112.5 115 117.5 120 122.5 125 127.5 130 132.5 135 137.5 140
142.5 145 147.5 150 152.5 155 157.5 160 162.5 165 167.5 170
172.5 175 177.5 180
0 22.5 45 67.5 90 112.5 135 157.5 180 202.5 225 247.5
270 292.5 315 337.5 360
     318.7      319.7      356.8      409.7      468.0      520.8      575.0      605.0      590.3      579.5
     586.7      587.3      576.8      552.5      520.8      475.0      424.4      371.5      325.7      279.1
     231.7      188.4      149.9      120.2       96.6       81.2       78.3       77.6       71.1       60.1
      50.4       44.4       45.2       45.5       45.6       45.6       44.5       44.4       44.5       44.1
      44.4       47.0       57.8       71.1       79.5       86.9      103.7      127.2      156.0      191.5
     232.3      276.7      320.8      373.0      423.3      471.9      514.9      547.5      574.8      593.0
     601.1      600.4      596.2      607.2      626.4      634.2      601.8      554.5      503.4      444.4
     388.6      341.8      321.1
     318.7      313.8      344.0      387.7      441.0      492.4      541.7      584.0      591.2      574.1
     567.2      572.0      568.9      554.5      530.6      496.6      452.5      401.4      350.3      303.7
     256.5      212.1      170.4      136.4      105.8       83.9       72.2       70.6       67.3       57.4
      47.0       39.2       37.5       38.0       38.0       37.3       37.8       38.0       38.3       39.4
      39.4       44.4       56.5       67.8       74.7       87.3      105.8      132.8      165.3      203.3
     245.9      291.3      335.4      387.2      435.8      480.5      519.6      549.4      573.6      586.7
     591.4      588.5      589.8      605.6      626.1      621.8      585.3      539.2      490.1      437.9
     384.7      338.8      321.1
     318.7      309.1      323.3      350.7      386.1      420.8      456.3      490.3      521.9      549.1
     557.2      538.7      522.3      516.7      513.6      502.7      483.6      455.9      424.4      383.8
     335.7      288.4      242.0      198.8      156.5      121.4       90.5       66.2       51.7       47.7
      42.3       31.3       23.6       22.2       21.6       22.0       21.9       23.9       24.3       23.9
      28.1       38.0       49.7       57.4       76.7      101.1      132.2      168.6      210.1      252.8
     299.0      348.7      393.3      435.6      469.7      497.3      520.0      534.0      541.7      543.7
     551.8      570.7      590.8      595.9      577.9      545.5      514.7      478.6      442.4      402.1
     362.4      331.6      321.1
     318.7      310.0      309.1      314.9      326.0      336.3      349.4      362.9      377.1      387.4
     398.9      407.1      415.2      421.4      422.8      425.5      418.8      402.4      383.4      365.2
     349.6      332.1      310.7      284.3      253.5      220.1      182.3      143.9      106.7       72.5
      44.8       26.1       20.0       12.5        9.4        8.9        7.8        9.7       10.1       13.9
      23.0       35.3       58.7       90.0      127.4      166.8      208.9      251.5      287.4      320.1
     345.5      367.9      384.3      398.7      415.6      435.8      456.3      475.5      485.2      484.7
     476.4      469.9      460.2      449.8      435.6      421.6      405.2      386.6      368.3      349.6
     333.0      321.9      321.1
     318.7      314.2      314.8      314.6      314.9      315.0      313.9      312.0      309.9      306.3
     302.6      297.6      292.0      285.7      278.4      270.3      261.7      251.9      241.4      230.9
     218.5      205.3      191.3      177.4      161.5      145.4      128.6      110.6       92.9       73.3
      55.1       38.0       23.7       11.7        7.0        4.1        2.9        3.7        6.7       14.2
      28.9       45.4       66.1       86.0      106.2      124.8      141.9      159.8      175.3      190.9
     204.3      217.8      231.0      242.5      252.3      262.3      271.0      279.3      286.5      292.3
     298.1      301.9      306.5      309.5      313.3      315.4      316.7      317.7      317.9      318.0
     318.0      318.0      321.1
     318.7      325.1      338.2      352.1      365.8      377.7      389.7      400.1      410.2      419.0
     424.6      430.2      433.0      431.6      429.3      423.7      413.3      391.8      365.8      337.9
     307.7      281.8      253.2      226.0      199.2      176.5      151.5      133.1      118.9      106.7
      93.6       80.1       63.0       46.1       34.9       27.2       25.9       32.6       40.9       50.2
      60.1       69.3       82.6       98.6      120.9      145.2      171.1      199.7      229.0      257.3
     284.8      312.9      341.5      370.4      394.9      418.3      434.5      442.2      446.6      445.5
     443.0      438.8      432.1      424.9      416.0      405.5      393.0      380.5      367.4      352.4
     338.2      321.5      321.1
     318.7      340.4      369.0      395.8      423.3      448.7      471.2      489.7      502.0      509.2
     505.9      484.7      458.6      430.0      404.6      377.7      351.0      323.5      301.5      280.1
     256.0      237.9      220.1      209.2      200.1      189.3      178.3      167.7      154.0      134.4
     114.5       95.6       81.1       70.2       61.4       57.4       56.5       58.9       62.8       70.5
      82.2       94.1      102.5      109.8      119.1      129.2      142.5      156.0      174.9      200.1
     225.4      254.2      281.6      311.6      339.9      369.7      396.6      421.9      451.0      476.6
     500.9      518.7      524.5      519.2      505.5      487.7      465.8      441.7      416.3      387.4
     360.7      332.5      321.1
     318.7      349.1      387.9      424.4      459.1      488.3      511.9      526.6      523.0      501.1
     471.9      442.2      419.2      389.9      363.8      342.4      321.3      297.1      279.4      262.9
     250.7      243.4      235.3      227.4      217.5      207.1      194.0      174.5      155.1      135.3
     117.8      101.5       91.2       82.8       77.2       74.1       72.9       76.1       77.8       83.1
      90.5      102.2      116.2      124.0      131.7      138.0      146.4      156.7      168.4      181.5
     196.5      220.6      246.0      274.9      303.7      332.1      362.7      391.9      420.1      445.8
     474.1      500.9      526.6      544.4      548.9      535.2      513.1      484.1      453.6      417.7
     380.5      343.8      321.1
     318.7      354.4      394.9      433.0      468.0      496.4      516.7      527.0      508.8      482.5
     452.3      428.9      403.5      376.9      355.5      335.2      311.8      292.9      275.1      261.8
     255.7      249.5      241.3      231.8      222.0      211.4      193.6      172.9      152.8      133.7
     117.8      103.1       93.6       86.4       82.4       79.7       78.3       81.5       84.8       88.4
      95.4      105.6      119.8      130.8      136.9      144.0      150.1      158.4      170.4      182.8
     195.0      213.9      238.4      266.5      294.3      324.9      356.0      385.7      414.9      440.4
     464.7      491.9      519.2      541.2      556.5      550.0      530.0      501.9      471.4      433.6
     396.3      356.8      321.1
     318.7      349.1      387.9      424.4      459.1      488.3      511.9      526.6      523.0      501.1
     471.9      442.2      419.2      389.9      363.8      342.4      321.3      297.1      279.4      262.9
     250.7      243.4      235.3      227.4      217.5      207.1      194.0      174.5      155.1      135.3
     117.8      101.5       91.2       82.8       77.2       74.1       72.9       76.1       77.8       83.1
      90.5      102.2      116.2      124.0      131.7      138.0      146.4      156.7      168.4      181.5
     196.5      220.6      246.0      274.9      303.7      332.1      362.7      391.9      420.1      445.8
     474.1      500.9      526.6      544.4      548.9      535.2      513.1      484.1      453.6      417.7
     380.5      343.8      321.1
     318.7      340.4      369.0      395.8      423.3      448.7      471.2      489.7      502.0      509.2
     505.9      484.7      458.6      430.0      404.6      377.7      351.0      323.5      301.5      280.1
     256.0      237.9      220.1      209.2      200.1      189.3      178.3      167.7      154.0      134.4
     114.5       95.6       81.1       70.2       61.4       57.4       56.5       58.9       62.8       70.5
      82.2       94.1      102.5      109.8      119.1      129.2      142.5      156.0      174.9      200.1
     225.4      254.2      281.6      311.6      339.9      369.7      396.6      421.9      451.0      476.6
     500.9      518.7      524.5      519.2      505.5      487.7      465.8      441.7      416.3      387.4
     360.7      332.5      321.1
     318.7      325.1      338.2      352.1      365.8      377.7      389.7      400.1      410.2      419.0
     424.6      430.2      433.0      431.6      429.3      423.7      413.3      391.8      365.8      337.9
     307.7      281.8      253.2      226.0      199.2      176.5      151.5      133.1      118.9      106.7
      93.6       80.1       63.0       46.1       34.9       27.2       25.9       32.6       40.9       50.2
      60.1       69.3       82.6       98.6      120.9      145.2      171.1      199.7      229.0      257.3
     284.8      312.9      341.5      370.4      394.9      418.3      434.5      442.2      446.6      445.5
     443.0      438.8      432.1      424.9      416.0      405.5      393.0      380.5      367.4      352.4
     338.2      321.5      321.1
     318.7      314.2      314.8      314.6      314.9      315.0      313.9      312.0      309.9      306.3
     302.6      297.6      292.0      285.7      278.4      270.3      261.7      251.9      241.4      230.9
     218.5      205.3      191.3      177.4      161.5      145.4      128.6      110.6       92.9       73.3
      55.1       38.0       23.7       11.7        7.0        4.1        2.9        3.7        6.7       14.2
      28.9       45.4       66.1       86.0      106.2      124.8      141.9      159.8      175.3      190.9
     204.3      217.8      231.0      242.5      252.3      262.3      271.0      279.3      286.5      292.3
     298.1      301.9      306.5      309.5      313.3      315.4      316.7      317.7      317.9      318.0
     318.0      318.0      321.1
     318.7      310.0      309.1      314.9      326.0      336.3      349.4      362.9      377.1      387.4
     398.9      407.1      415.2      421.4      422.8      425.5      418.8      402.4      383.4      365.2
     349.6      332.1      310.7      284.3      253.5      220.1      182.3      143.9      106.7       72.5
      44.8       26.1       20.0       12.5        9.4        8.9        7.8        9.7       10.1       13.9
      23.0       35.3       58.7       90.0      127.4      166.8      208.9      251.5      287.4      320.1
     345.5      367.9      384.3      398.7      415.6      435.8      456.3      475.5      485.2      484.7
     476.4      469.9      460.2      449.8      435.6      421.6      405.2      386.6      368.3      349.6
     333.0      321.9      321.1
     318.7      309.1      323.3      350.7      386.1      420.8      456.3      490.3      521.9      549.1
     557.2      538.7      522.3      516.7      513.6      502.7      483.6      455.9      424.4      383.8
     335.7      288.4      242.0      198.8      156.5      121.4       90.5       66.2       51.7       47.7
      42.3       31.3       23.6       22.2       21.6       22.0       21.9       23.9       24.3       23.9
      28.1       38.0       49.7       57.4       76.7      101.1      132.2      168.6      210.1      252.8
     299.0      348.7      393.3      435.6      469.7      497.3      520.0      534.0      541.7      543.7
     551.8      570.7      590.8      595.9      577.9      545.5      514.7      478.6      442.4      402.1
     362.4      331.6      321.1
     318.7      313.8      344.0      387.7      441.0      492.4      541.7      584.0      591.2      574.1
     567.2      572.0      568.9      554.5      530.6      496.6      452.5      401.4      350.3      303.7
     256.5      212.1      170.4      136.4      105.8       83.9       72.2       70.6       67.3       57.4
      47.0       39.2       37.5       38.0       38.0       37.3       37.8       38.0       38.3       39.4
      39.4       44.4       56.5       67.8       74.7       87.3      105.8      132.8      165.3      203.3
     245.9      291.3      335.4      387.2      435.8      480.5      519.6      549.4      573.6      586.7
     591.4      588.5      589.8      605.6      626.1      621.8      585.3      539.2      490.1      437.9
     384.7      338.8      321.1
     318.7      319.7      356.8      409.7      468.0      520.8      575.0      605.0      590.3      579.5
     586.7      587.3      576.8      552.5      520.8      475.0      424.4      371.5      325.7      279.1
     231.7      188.4      149.9      120.2       96.6       81.2       78.3       77.6       71.1       60.1
      50.4       44.4       45.2       45.5       45.6       45.6       44.5       44.4       44.5       44.1
      44.4       47.0       57.8       71.1       79.5       86.9      103.7      127.2      156.0      191.5
     232.3      276.7      320.8      373.0      423.3      471.9      514.9      547.5      574.8      593.0
     601.1      600.4      596.2      607.2      626.4      634.2      601.8      554.5      503.4      444.4
     388.6      341.8      321.1
