IESNA:LM-63-2002
[TEST]25483     
[TESTLAB]LIGHTING SCIENCES, INC.                            
[ISSUEDATE] 7/14/2009
[MANUFAC]COOPER LIGHTING - SHAPER                             
[LUMCAT]103-CFL/2/18-120V-JBE                                                           
[LUMINAIRE]TAUPE FABRIC SHADE RECTILINEAR WALL SCONCE                                          
[LAMP]TWO SYLVANIA 18 WATT CFL LAMPS                                                  
[LAMPCAT]FT18DL/830/RS/ECO. LUMEN RATING = 2500 LMS.                                     
[OTHER]ONE UNIVERSAL C218UNVSE BALLAST OPERATING AT 120 VAC AND 40 WATTS               
TILT=NONE
1
      2500
1
73
17
1
1
  0.33
  2.17
  0.71
1
1
   40.0000
0 2.5 5 7.5 10 12.5 15 17.5 20 22.5 25 27.5 30 32.5 35 37.5
40 42.5 45 47.5 50 52.5 55 57.5 60 62.5 65 67.5 70 72.5 75
77.5 80 82.5 85 87.5 90 92.5 95 97.5 100 102.5 105 107.5 110
112.5 115 117.5 120 122.5 125 127.5 130 132.5 135 137.5 140
142.5 145 147.5 150 152.5 155 157.5 160 162.5 165 167.5 170
172.5 175 177.5 180
0 22.5 45 67.5 90 112.5 135 157.5 180 202.5 225 247.5
270 292.5 315 337.5 360
     130.8      137.3      161.9      190.8      222.8      251.9      274.3      283.7      268.9      259.5
     260.9      261.3      262.3      261.8      251.9      230.5      207.2      180.0      156.7      133.6
     109.0       87.1       68.9       54.1       41.4       33.2       32.5       32.9       31.1       25.8
      21.2       17.8       17.4       17.4       16.6       16.0       16.0       15.6       16.0       16.8
      16.8       18.6       24.2       28.9       29.8       34.2       42.3       55.9       70.7       88.9
     111.4      134.3      155.3      180.0      205.6      229.7      250.1      262.3      265.1      264.1
     262.9      262.7      261.5      266.1      284.7      290.5      276.1      257.5      231.5      201.2
     171.4      146.1      129.6
     130.8      133.2      154.1      181.8      210.8      236.5      260.7      275.3      272.5      256.7
     250.3      250.5      251.5      251.3      249.5      239.0      218.8      193.6      167.5      145.5
     122.0      100.4       79.1       61.7       46.4       36.1       30.7       30.0       28.9       26.0
      20.2       16.4       15.6       15.4       14.8       14.6       13.4       14.4       14.6       14.0
      14.4       18.1       22.8       27.1       28.4       34.7       44.3       59.1       75.3       94.8
     117.1      140.0      160.1      185.8      210.2      230.9      246.9      252.9      253.5      253.9
     252.9      252.7      253.1      265.9      284.0      282.0      267.5      249.7      225.1      195.4
     168.9      144.9      129.6
     130.8      129.6      144.0      161.7      182.1      200.8      220.6      236.9      249.3      254.1
     249.1      235.5      227.2      223.3      222.4      221.1      217.5      209.8      199.0      180.7
     158.7      136.8      115.0       93.0       72.7       54.1       38.9       29.2       23.0       21.2
      20.2       15.6       11.8       10.6        9.8        9.4        9.4        9.6        9.2       10.2
      12.4       16.0       19.4       23.4       30.7       43.6       59.1       77.7       98.8      118.8
     141.1      164.1      183.9      201.4      213.6      219.3      222.5      224.7      225.4      227.3
     232.2      241.9      258.3      261.8      259.3      251.1      238.3      219.3      199.0      177.9
     157.9      142.3      129.6
     130.8      127.5      131.4      139.3      146.7      154.1      162.1      170.0      177.6      184.4
     190.6      194.6      195.6      194.0      189.0      183.0      177.1      168.9      162.9      157.7
     151.3      144.0      136.0      127.0      115.0      100.8       82.6       63.1       45.5       28.4
      17.2       11.8        9.0        6.4        5.6        5.0        4.6        4.8        5.0        6.6
       9.6       13.4       22.2       36.1       53.5       72.3       89.3      107.2      119.8      131.8
     140.4      148.1      152.3      157.9      164.6      170.9      180.0      188.8      196.0      203.4
     206.6      208.6      205.8      200.6      192.4      184.7      176.3      166.9      159.1      149.9
     143.1      135.7      129.6
     130.8      128.4      128.6      128.5      129.2      129.5      129.1      129.2      128.3      127.0
     126.3      124.8      123.0      121.6      119.9      117.6      114.7      111.2      107.3      101.7
      95.1       88.5       80.6       74.1       67.7       61.0       53.6       46.4       38.3       30.1
      21.9       14.4        8.7        4.3        2.7        2.3        1.2        1.6        2.1        4.7
       9.4       15.4       24.0       32.0       40.0       47.0       53.7       60.5       66.3       73.3
      80.3       88.6       94.7      101.0      107.2      111.3      114.9      117.7      119.8      120.9
     122.7      123.8      124.9      126.5      127.0      128.3      128.1      128.6      128.7      128.3
     128.9      128.2      129.6
     130.8      136.4      144.5      152.5      160.5      168.1      173.6      176.7      179.3      182.1
     183.9      184.7      184.0      184.4      184.3      184.0      183.0      178.6      169.7      160.1
     147.7      134.3      122.4      108.8       94.8       84.6       73.2       64.9       57.3       52.5
      47.7       40.7       32.4       23.5       18.0       14.0       13.6       15.4       19.6       23.5
      28.2       32.9       40.0       46.9       58.3       71.4       84.6       99.0      112.6      126.8
     138.6      153.3      165.1      176.1      183.9      188.0      188.6      189.8      189.0      189.7
     189.7      188.4      187.2      184.7      182.9      178.9      174.3      165.9      156.9      147.3
     137.5      129.6      129.6
     130.8      145.8      163.9      179.7      190.1      197.0      204.2      210.2      216.1      222.9
     226.5      221.0      212.2      199.8      188.0      177.5      164.6      151.5      140.5      130.7
     120.3      112.8      104.8       99.7       96.2       93.0       88.6       83.9       76.1       66.1
      57.3       48.3       41.5       36.4       32.1       30.3       29.8       31.0       32.4       35.6
      40.0       45.5       47.7       51.5       56.7       61.9       68.1       73.2       82.5       93.4
     106.4      119.4      131.5      145.4      159.1      171.3      183.6      196.6      208.6      220.0
     227.8      230.1      226.5      221.1      214.2      209.2      203.4      195.1      187.0      172.5
     152.7      135.1      129.6
     130.8      151.9      176.1      192.6      204.4      212.8      220.4      230.8      235.4      228.2
     216.6      203.8      194.6      181.6      169.5      157.9      147.7      137.9      130.6      123.0
     118.6      116.6      114.0      110.2      106.6      102.0       94.4       85.4       75.5       66.7
      58.7       51.5       46.9       42.5       40.0       38.9       37.5       39.2       39.7       41.9
      45.4       49.1       55.1       59.3       60.7       64.7       69.1       74.5       80.3       84.6
      91.2      101.0      112.0      124.8      138.2      150.5      164.5      176.8      190.2      200.4
     213.8      226.5      236.2      238.3      235.5      226.0      217.9      210.0      200.0      187.2
     165.1      139.5      129.6
     130.8      153.7      180.8      197.0      209.6      217.8      227.3      236.5      233.2      221.4
     207.8      196.4      184.4      171.7      160.1      150.7      141.8      133.7      127.0      122.0
     120.2      118.2      115.0      111.6      107.4      101.8       92.5       83.1       74.5       65.9
      57.9       52.2       48.3       44.6       42.9       41.5       40.1       41.4       42.8       44.7
      47.2       50.5       55.7       61.7       64.7       65.9       70.9       75.9       80.7       85.8
      89.8       96.6      106.6      118.8      131.4      144.1      157.9      171.8      185.4      197.6
     208.0      219.3      230.8      239.4      239.9      233.7      224.3      217.5      207.0      194.8
     174.9      146.3      129.6
     130.8      151.9      176.1      192.6      204.4      212.8      220.4      230.8      235.4      228.2
     216.6      203.8      194.6      181.6      169.5      157.9      147.7      137.9      130.6      123.0
     118.6      116.6      114.0      110.2      106.6      102.0       94.4       85.4       75.5       66.7
      58.7       51.5       46.9       42.5       40.0       38.9       37.5       39.2       39.7       41.9
      45.4       49.1       55.1       59.3       60.7       64.7       69.1       74.5       80.3       84.6
      91.2      101.0      112.0      124.8      138.2      150.5      164.5      176.8      190.2      200.4
     213.8      226.5      236.2      238.3      235.5      226.0      217.9      210.0      200.0      187.2
     165.1      139.5      129.6
     130.8      145.8      163.9      179.7      190.1      197.0      204.2      210.2      216.1      222.9
     226.5      221.0      212.2      199.8      188.0      177.5      164.6      151.5      140.5      130.7
     120.3      112.8      104.8       99.7       96.2       93.0       88.6       83.9       76.1       66.1
      57.3       48.3       41.5       36.4       32.1       30.3       29.8       31.0       32.4       35.6
      40.0       45.5       47.7       51.5       56.7       61.9       68.1       73.2       82.5       93.4
     106.4      119.4      131.5      145.4      159.1      171.3      183.6      196.6      208.6      220.0
     227.8      230.1      226.5      221.1      214.2      209.2      203.4      195.1      187.0      172.5
     152.7      135.1      129.6
     130.8      136.4      144.5      152.5      160.5      168.1      173.6      176.7      179.3      182.1
     183.9      184.7      184.0      184.4      184.3      184.0      183.0      178.6      169.7      160.1
     147.7      134.3      122.4      108.8       94.8       84.6       73.2       64.9       57.3       52.5
      47.7       40.7       32.4       23.5       18.0       14.0       13.6       15.4       19.6       23.5
      28.2       32.9       40.0       46.9       58.3       71.4       84.6       99.0      112.6      126.8
     138.6      153.3      165.1      176.1      183.9      188.0      188.6      189.8      189.0      189.7
     189.7      188.4      187.2      184.7      182.9      178.9      174.3      165.9      156.9      147.3
     137.5      129.6      129.6
     130.8      128.4      128.6      128.5      129.2      129.5      129.1      129.2      128.3      127.0
     126.3      124.8      123.0      121.6      119.9      117.6      114.7      111.2      107.3      101.7
      95.1       88.5       80.6       74.1       67.7       61.0       53.6       46.4       38.3       30.1
      21.9       14.4        8.7        4.3        2.7        2.3        1.2        1.6        2.1        4.7
       9.4       15.4       24.0       32.0       40.0       47.0       53.7       60.5       66.3       73.3
      80.3       88.6       94.7      101.0      107.2      111.3      114.9      117.7      119.8      120.9
     122.7      123.8      124.9      126.5      127.0      128.3      128.1      128.6      128.7      128.3
     128.9      128.2      129.6
     130.8      127.5      131.4      139.3      146.7      154.1      162.1      170.0      177.6      184.4
     190.6      194.6      195.6      194.0      189.0      183.0      177.1      168.9      162.9      157.7
     151.3      144.0      136.0      127.0      115.0      100.8       82.6       63.1       45.5       28.4
      17.2       11.8        9.0        6.4        5.6        5.0        4.6        4.8        5.0        6.6
       9.6       13.4       22.2       36.1       53.5       72.3       89.3      107.2      119.8      131.8
     140.4      148.1      152.3      157.9      164.6      170.9      180.0      188.8      196.0      203.4
     206.6      208.6      205.8      200.6      192.4      184.7      176.3      166.9      159.1      149.9
     143.1      135.7      129.6
     130.8      129.6      144.0      161.7      182.1      200.8      220.6      236.9      249.3      254.1
     249.1      235.5      227.2      223.3      222.4      221.1      217.5      209.8      199.0      180.7
     158.7      136.8      115.0       93.0       72.7       54.1       38.9       29.2       23.0       21.2
      20.2       15.6       11.8       10.6        9.8        9.4        9.4        9.6        9.2       10.2
      12.4       16.0       19.4       23.4       30.7       43.6       59.1       77.7       98.8      118.8
     141.1      164.1      183.9      201.4      213.6      219.3      222.5      224.7      225.4      227.3
     232.2      241.9      258.3      261.8      259.3      251.1      238.3      219.3      199.0      177.9
     157.9      142.3      129.6
     130.8      133.2      154.1      181.8      210.8      236.5      260.7      275.3      272.5      256.7
     250.3      250.5      251.5      251.3      249.5      239.0      218.8      193.6      167.5      145.5
     122.0      100.4       79.1       61.7       46.4       36.1       30.7       30.0       28.9       26.0
      20.2       16.4       15.6       15.4       14.8       14.6       13.4       14.4       14.6       14.0
      14.4       18.1       22.8       27.1       28.4       34.7       44.3       59.1       75.3       94.8
     117.1      140.0      160.1      185.8      210.2      230.9      246.9      252.9      253.5      253.9
     252.9      252.7      253.1      265.9      284.0      282.0      267.5      249.7      225.1      195.4
     168.9      144.9      129.6
     130.8      137.3      161.9      190.8      222.8      251.9      274.3      283.7      268.9      259.5
     260.9      261.3      262.3      261.8      251.9      230.5      207.2      180.0      156.7      133.6
     109.0       87.1       68.9       54.1       41.4       33.2       32.5       32.9       31.1       25.8
      21.2       17.8       17.4       17.4       16.6       16.0       16.0       15.6       16.0       16.8
      16.8       18.6       24.2       28.9       29.8       34.2       42.3       55.9       70.7       88.9
     111.4      134.3      155.3      180.0      205.6      229.7      250.1      262.3      265.1      264.1
     262.9      262.7      261.5      266.1      284.7      290.5      276.1      257.5      231.5      201.2
     171.4      146.1      129.6
