IESNA:LM-63-2002
[TEST]25486     
[TESTLAB]LIGHTING SCIENCES, INC.                            
[ISSUEDATE] 7/14/2009
[MANUFAC]COOPER LIGHTING - SHAPER                             
[LUMCAT]103-CFL/2/39-120V-JBE                                                           
[LUMINAIRE]TAUPE FABRIC SHADE RECTILINEAR WALL SCONCE                                            
[LAMP]TWO SYLVANIA 36 WATT CFL LAMPS                                                  
[LAMPCAT]FT36DL/830/ECO. LUMEN RATING = 5800 LMS.                                        
[OTHER]ONE UNIVERSAL 239UNV-D BALLAST OPERATING AT 120 VAC AND 71 WATTS                
TILT=NONE
1
      5800
1
73
17
1
1
  0.33
  2.17
  0.71
1
1
   71.0000
0 2.5 5 7.5 10 12.5 15 17.5 20 22.5 25 27.5 30 32.5 35 37.5
40 42.5 45 47.5 50 52.5 55 57.5 60 62.5 65 67.5 70 72.5 75
77.5 80 82.5 85 87.5 90 92.5 95 97.5 100 102.5 105 107.5 110
112.5 115 117.5 120 122.5 125 127.5 130 132.5 135 137.5 140
142.5 145 147.5 150 152.5 155 157.5 160 162.5 165 167.5 170
172.5 175 177.5 180
0 22.5 45 67.5 90 112.5 135 157.5 180 202.5 225 247.5
270 292.5 315 337.5 360
     331.6      327.7      366.8      420.8      482.5      541.2      598.0      631.5      617.8      599.8
     600.9      601.8      593.4      570.7      538.9      495.8      445.5      391.0      339.5      292.2
     244.0      198.8      157.8      127.0      100.8       82.8       76.7       75.6       68.9       56.9
      47.2       41.2       40.5       40.9       40.8       40.0       40.5       39.2       39.6       38.9
      39.8       44.1       56.7       69.8       77.8       86.2      105.1      131.0      162.3      201.0
     244.0      289.9      337.7      391.9      443.9      492.6      534.5      566.2      593.4      609.7
     616.7      618.0      616.4      632.4      651.1      652.5      616.9      566.4      512.8      454.1
     396.3      347.9      330.4
     331.6      321.9      354.4      401.9      458.8      513.1      564.4      612.6      620.9      599.1
     586.9      589.8      586.2      572.8      548.4      514.7      471.6      420.3      366.3      315.9
     267.0      222.2      179.0      142.0      110.9       87.5       73.4       71.4       67.0       56.9
      46.1       37.8       36.4       36.7       36.0       36.2       35.3       36.0       36.4       35.5
      36.2       43.0       54.9       68.9       75.4       88.4      108.9      138.7      172.0      213.9
     258.9      306.2      353.9      407.5      456.1      502.0      539.2      569.8      592.6      604.7
     609.0      605.9      612.6      631.5      650.6      640.1      598.6      550.3      501.9      446.9
     392.7      346.5      330.4
     331.6      317.0      333.4      363.3      402.7      440.2      479.5      516.2      551.8      580.4
     586.9      565.3      545.8      538.9      532.9      522.1      502.5      473.6      441.0      399.1
     349.0      299.0      250.4      206.8      163.9      127.0       96.6       71.6       56.3       51.7
      46.4       35.1       26.3       25.0       25.0       23.9       24.3       24.5       25.5       25.0
      29.7       40.0       51.6       61.7       81.7      106.7      139.5      179.2      220.4      266.3
     314.0      365.7      410.8      452.3      486.3      513.6      535.0      548.0      555.4      558.8
     571.9      591.9      611.9      612.2      590.6      557.0      525.3      488.1      451.0      409.7
     369.0      337.2      330.4
     331.6      318.1      317.2      324.0      337.2      350.7      366.5      381.6      397.1      412.4
     423.7      436.3      444.4      451.6      459.3      458.8      449.1      428.6      407.7      387.2
     370.4      351.6      327.7      300.1      266.8      231.5      191.1      149.0      110.9       75.6
      48.1       30.8       24.1       16.9       12.8       12.8       11.4       12.8       12.8       17.5
      26.7       39.8       64.2       95.0      133.4      176.5      219.8      261.8      296.9      329.8
     354.1      376.6      392.9      408.4      426.9      448.3      469.4      485.8      493.7      492.6
     483.8      477.5      467.2      456.3      442.7      426.6      411.1      391.3      373.3      353.9
     338.2      327.4      330.4
     331.6      326.0      325.9      326.5      326.6      325.6      325.0      323.2      320.6      317.8
     313.3      308.5      302.4      295.6      289.4      281.1      272.5      262.6      252.0      240.4
     227.8      215.0      200.3      186.1      169.5      153.6      135.1      117.5       98.1       77.6
      58.7       40.5       25.6       13.9        9.1        5.6        4.4        4.7        8.9       17.0
      32.0       49.3       70.2       89.9      111.0      129.4      148.0      165.1      181.0      196.3
     210.4      223.4      236.9      248.1      258.7      268.1      276.9      285.0      292.4      298.0
     304.0      307.9      312.7      316.1      319.1      321.4      322.9      323.7      324.0      324.0
     324.3      324.0      330.4
     331.6      342.7      357.1      371.6      387.0      401.6      415.4      427.7      439.4      447.8
     455.5      459.5      460.2      460.0      455.7      446.6      427.1      401.2      373.0      344.7
     317.7      290.9      263.8      238.8      215.4      190.0      167.7      150.4      136.4      122.5
     108.7       92.3       72.0       54.9       43.2       35.5       36.2       38.5       48.9       60.3
      70.2       82.4       95.0      109.6      132.6      158.2      185.5      214.1      242.7      272.1
     298.7      325.7      355.0      383.2      409.3      432.7      450.5      460.8      467.2      467.8
     465.6      459.7      453.0      445.5      435.4      424.4      411.8      398.5      383.8      368.3
     351.9      335.0      330.4
     331.6      355.5      385.8      416.7      446.9      472.8      496.4      513.9      526.6      533.3
     520.5      498.3      472.1      443.8      422.1      395.5      372.4      350.7      330.5      304.6
     282.3      264.5      247.0      236.6      225.8      213.4      200.6      188.4      172.0      150.1
     129.0      109.6       95.9       83.9       75.6       73.4       71.8       75.2       77.5       84.8
      97.9      113.0      122.9      132.2      141.4      152.4      163.4      177.0      194.0      219.0
     246.0      275.1      302.8      333.0      361.1      390.8      418.8      441.7      470.5      495.5
     519.6      539.7      548.2      544.2      533.1      513.3      492.2      465.8      438.3      408.0
     378.0      348.3      330.4
     331.6      366.8      408.4      446.0      483.0      513.1      536.1      550.6      541.0      517.6
     490.6      465.3      439.7      416.0      394.9      375.7      352.4      329.1      311.2      294.5
     283.9      274.9      265.2      255.7      244.0      232.1      216.5      195.1      174.9      154.7
     136.2      120.2      108.5       99.5       96.4       94.3       92.5       97.0       99.2      101.7
     108.5      119.8      137.1      151.2      158.4      165.7      174.9      183.9      194.0      205.6
     219.3      241.8      268.5      297.4      325.1      355.2      385.4      413.6      443.0      468.3
     493.5      521.6      546.4      564.7      572.3      561.3      541.0      510.8      477.3      438.8
     401.0      361.8      330.4
     331.6      369.0      412.7      453.9      491.0      518.3      538.7      546.2      526.1      501.4
     473.5      451.1      428.9      408.0      391.5      368.8      344.0      325.5      307.3      296.0
     288.4      280.1      269.9      259.8      248.3      235.1      215.0      194.0      173.4      153.5
     137.1      122.0      111.2      104.2      102.5      100.4       99.0      103.3      105.8      107.8
     113.4      124.0      140.5      155.8      165.0      171.5      179.8      188.7      197.0      207.3
     218.4      235.3      258.4      286.2      315.7      344.9      376.2      405.5      435.2      461.7
     485.4      508.8      535.3      558.1      575.0      572.5      555.4      527.0      495.0      456.1
     414.7      373.7      330.4
     331.6      366.8      408.4      446.0      483.0      513.1      536.1      550.6      541.0      517.6
     490.6      465.3      439.7      416.0      394.9      375.7      352.4      329.1      311.2      294.5
     283.9      274.9      265.2      255.7      244.0      232.1      216.5      195.1      174.9      154.7
     136.2      120.2      108.5       99.5       96.4       94.3       92.5       97.0       99.2      101.7
     108.5      119.8      137.1      151.2      158.4      165.7      174.9      183.9      194.0      205.6
     219.3      241.8      268.5      297.4      325.1      355.2      385.4      413.6      443.0      468.3
     493.5      521.6      546.4      564.7      572.3      561.3      541.0      510.8      477.3      438.8
     401.0      361.8      330.4
     331.6      355.5      385.8      416.7      446.9      472.8      496.4      513.9      526.6      533.3
     520.5      498.3      472.1      443.8      422.1      395.5      372.4      350.7      330.5      304.6
     282.3      264.5      247.0      236.6      225.8      213.4      200.6      188.4      172.0      150.1
     129.0      109.6       95.9       83.9       75.6       73.4       71.8       75.2       77.5       84.8
      97.9      113.0      122.9      132.2      141.4      152.4      163.4      177.0      194.0      219.0
     246.0      275.1      302.8      333.0      361.1      390.8      418.8      441.7      470.5      495.5
     519.6      539.7      548.2      544.2      533.1      513.3      492.2      465.8      438.3      408.0
     378.0      348.3      330.4
     331.6      342.7      357.1      371.6      387.0      401.6      415.4      427.7      439.4      447.8
     455.5      459.5      460.2      460.0      455.7      446.6      427.1      401.2      373.0      344.7
     317.7      290.9      263.8      238.8      215.4      190.0      167.7      150.4      136.4      122.5
     108.7       92.3       72.0       54.9       43.2       35.5       36.2       38.5       48.9       60.3
      70.2       82.4       95.0      109.6      132.6      158.2      185.5      214.1      242.7      272.1
     298.7      325.7      355.0      383.2      409.3      432.7      450.5      460.8      467.2      467.8
     465.6      459.7      453.0      445.5      435.4      424.4      411.8      398.5      383.8      368.3
     351.9      335.0      330.4
     331.6      326.0      325.9      326.5      326.6      325.6      325.0      323.2      320.6      317.8
     313.3      308.5      302.4      295.6      289.4      281.1      272.5      262.6      252.0      240.4
     227.8      215.0      200.3      186.1      169.5      153.6      135.1      117.5       98.1       77.6
      58.7       40.5       25.6       13.9        9.1        5.6        4.4        4.7        8.9       17.0
      32.0       49.3       70.2       89.9      111.0      129.4      148.0      165.1      181.0      196.3
     210.4      223.4      236.9      248.1      258.7      268.1      276.9      285.0      292.4      298.0
     304.0      307.9      312.7      316.1      319.1      321.4      322.9      323.7      324.0      324.0
     324.3      324.0      330.4
     331.6      318.1      317.2      324.0      337.2      350.7      366.5      381.6      397.1      412.4
     423.7      436.3      444.4      451.6      459.3      458.8      449.1      428.6      407.7      387.2
     370.4      351.6      327.7      300.1      266.8      231.5      191.1      149.0      110.9       75.6
      48.1       30.8       24.1       16.9       12.8       12.8       11.4       12.8       12.8       17.5
      26.7       39.8       64.2       95.0      133.4      176.5      219.8      261.8      296.9      329.8
     354.1      376.6      392.9      408.4      426.9      448.3      469.4      485.8      493.7      492.6
     483.8      477.5      467.2      456.3      442.7      426.6      411.1      391.3      373.3      353.9
     338.2      327.4      330.4
     331.6      317.0      333.4      363.3      402.7      440.2      479.5      516.2      551.8      580.4
     586.9      565.3      545.8      538.9      532.9      522.1      502.5      473.6      441.0      399.1
     349.0      299.0      250.4      206.8      163.9      127.0       96.6       71.6       56.3       51.7
      46.4       35.1       26.3       25.0       25.0       23.9       24.3       24.5       25.5       25.0
      29.7       40.0       51.6       61.7       81.7      106.7      139.5      179.2      220.4      266.3
     314.0      365.7      410.8      452.3      486.3      513.6      535.0      548.0      555.4      558.8
     571.9      591.9      611.9      612.2      590.6      557.0      525.3      488.1      451.0      409.7
     369.0      337.2      330.4
     331.6      321.9      354.4      401.9      458.8      513.1      564.4      612.6      620.9      599.1
     586.9      589.8      586.2      572.8      548.4      514.7      471.6      420.3      366.3      315.9
     267.0      222.2      179.0      142.0      110.9       87.5       73.4       71.4       67.0       56.9
      46.1       37.8       36.4       36.7       36.0       36.2       35.3       36.0       36.4       35.5
      36.2       43.0       54.9       68.9       75.4       88.4      108.9      138.7      172.0      213.9
     258.9      306.2      353.9      407.5      456.1      502.0      539.2      569.8      592.6      604.7
     609.0      605.9      612.6      631.5      650.6      640.1      598.6      550.3      501.9      446.9
     392.7      346.5      330.4
     331.6      327.7      366.8      420.8      482.5      541.2      598.0      631.5      617.8      599.8
     600.9      601.8      593.4      570.7      538.9      495.8      445.5      391.0      339.5      292.2
     244.0      198.8      157.8      127.0      100.8       82.8       76.7       75.6       68.9       56.9
      47.2       41.2       40.5       40.9       40.8       40.0       40.5       39.2       39.6       38.9
      39.8       44.1       56.7       69.8       77.8       86.2      105.1      131.0      162.3      201.0
     244.0      289.9      337.7      391.9      443.9      492.6      534.5      566.2      593.4      609.7
     616.7      618.0      616.4      632.4      651.1      652.5      616.9      566.4      512.8      454.1
     396.3      347.9      330.4
