IESNA:LM-63-1995
[TEST]     20432
[MANUFAC]COOPER LIGHTING - SHAPER                                 
[LUMCAT]692-T5C/1/22                                                                    
[LUMINAIRE]INTERIOR WALL MOUNT LUMINAIRE WITH WHITE PLASTIC LENS AND BAFFLE RING                                         
[LAMP]ONE SYLVANIA 26 WATT CPFL LAMP                                                  
[LAMPCAT]FPC22/835. LUMEN RATING = 1800 LMS.                                             
[OTHER]ONE UNIVERSAL C2642UNVSE BALLAST OPERATING AT 120 VAC AND 23 WATTS              
TILT=NONE
1
      1800
1
73
17
1
1
  0.23
  1.06
  1.06
1
1
   23.0000
0 2.5 5 7.5 10 12.5 15 17.5 20 22.5 25 27.5 30 32.5 35 37.5
40 42.5 45 47.5 50 52.5 55 57.5 60 62.5 65 67.5 70 72.5 75
77.5 80 82.5 85 87.5 90 92.5 95 97.5 100 102.5 105 107.5 110
112.5 115 117.5 120 122.5 125 127.5 130 132.5 135 137.5 140
142.5 145 147.5 150 152.5 155 157.5 160 162.5 165 167.5 170
172.5 175 177.5 180
0 22.5 45 67.5 90 112.5 135 157.5 180 202.5 225 247.5
270 292.5 315 337.5 360
      32.1       36.5       42.5       48.5       54.5       60.8       67.6       74.1       81.1       88.2
      95.4      102.6      110.8      118.4      126.2      134.4      142.2      150.1      157.7      165.1
     172.4      179.0      185.3      191.4      197.2      202.3      207.3      211.6      215.4      218.6
     221.6      224.1      225.9      227.5      228.3      228.2      228.3      227.6      226.8      224.9
     222.0      219.3      216.2      212.4      207.4      202.8      197.4      192.0      186.1      179.1
     172.8      165.6      158.5      150.6      142.9      135.0      127.4      119.5      111.6      104.1
      96.5       89.4       82.1       75.5       68.5       62.1       56.6       50.6       45.0       39.7
      34.7       29.8       25.6
      32.1       36.3       42.3       47.7       53.1       59.2       65.1       71.1       77.4       83.9
      90.2       97.1      103.7      111.0      117.8      124.5      131.5      138.5      145.1      151.3
     158.3      164.2      170.3      175.5      180.3      185.1      189.7      193.4      196.8      199.8
     202.4      204.6      206.2      207.4      208.2      208.1      208.1      205.8      204.4      202.4
     200.5      197.8      194.6      190.8      187.2      182.8      177.8      172.8      167.4      161.2
     155.7      148.6      142.2      135.9      129.0      122.3      115.6      108.9      101.7       95.7
      89.1       82.7       76.5       70.1       65.0       59.3       53.6       48.4       43.4       38.7
      34.0       29.5       25.6
      32.1       36.3       40.5       44.6       48.5       52.8       57.6       61.6       66.3       70.8
      75.3       80.0       84.2       89.4       93.9       98.3      102.6      107.6      111.9      115.6
     120.2      124.0      127.6      131.1      134.6      137.6      140.2      142.8      144.9      147.1
     148.7      150.1      151.1      151.6      151.8      152.1      151.8      148.8      147.3      146.3
     144.3      142.4      140.3      137.9      134.5      131.3      128.3      124.5      120.9      117.5
     113.5      109.4      105.2      100.5       96.5       92.1       88.0       83.5       79.5       75.0
      70.8       66.2       62.3       58.5       54.2       50.3       47.0       42.9       39.8       35.9
      32.5       28.9       25.6
      32.1       34.7       37.4       39.6       41.5       44.1       46.4       48.5       50.3       52.8
      54.6       57.2       59.4       61.2       63.1       65.6       67.6       69.3       71.2       73.0
      74.7       76.2       77.7       78.9       80.3       81.4       82.5       83.3       84.0       84.5
      84.8       85.4       85.6       85.2       85.2       85.3       85.0       82.7       82.3       81.6
      80.1       79.1       78.5       77.4       75.8       74.3       73.3       71.1       69.6       68.5
      66.6       65.0       63.2       61.1       59.3       57.5       55.9       53.9       52.1       50.0
      48.2       46.3       44.5       42.7       40.4       38.7       36.7       35.0       33.2       31.3
      30.0       28.3       25.6
      32.1       33.0       32.7       33.2       33.1       33.1       32.8       32.8       33.0       32.9
      32.8       32.7       32.6       32.8       32.8       32.4       32.2       32.5       32.5       32.5
      32.2       32.2       32.1       32.1       31.9       31.7       31.8       31.6       31.5       31.4
      31.0       31.2       31.0       30.9       30.5       30.4       30.1       35.0       34.3       34.2
      34.0       33.8       33.2       33.1       32.4       32.4       31.9       31.8       31.2       31.0
      30.6       30.1       29.7       29.6       29.3       29.0       28.6       28.5       28.0       28.2
      27.6       27.7       27.4       27.2       27.0       26.9       26.6       26.6       26.7       26.2
      26.5       26.3       25.6
      32.1       30.6       28.3       26.4       24.5       23.0       21.3       19.7       18.1       16.6
      15.0       13.9       12.7       11.6       10.6        0.0        0.0        0.0        0.0        0.0
       0.0        0.0        0.0        0.0        0.0        0.0        0.0        0.0        0.0        0.0
       0.0        0.0        0.0        0.0        0.0        0.0        0.0        0.0        0.0        0.0
       0.0        0.0        0.0        0.0        0.0        0.0        0.0        0.0        0.0        0.0
       0.0        0.0        0.0        0.0        0.0        0.0        0.0       12.2       12.7       13.4
      14.0       14.7       15.0       16.3       16.6       17.6       18.5       19.7       20.8       22.5
      23.3       24.9       25.6
      32.1       28.3       24.4       21.5       18.5       15.4       13.2       10.9        0.0        0.0
       0.0        0.0        0.0        0.0        0.0        0.0        0.0        0.0        0.0        0.0
       0.0        0.0        0.0        0.0        0.0        0.0        0.0        0.0        0.0        0.0
       0.0        0.0        0.0        0.0        0.0        0.0        0.0        0.0        0.0        0.0
       0.0        0.0        0.0        0.0        0.0        0.0        0.0        0.0        0.0        0.0
       0.0        0.0        0.0        0.0        0.0        0.0        0.0        0.0        0.0        0.0
       0.0        0.0        0.0        0.0        0.0        0.0       12.2       14.0       15.8       18.2
      20.2       23.3       25.6
      32.1       26.5       22.0       17.7       14.6       11.2        0.0        0.0        0.0        0.0
       0.0        0.0        0.0        0.0        0.0        0.0        0.0        0.0        0.0        0.0
       0.0        0.0        0.0        0.0        0.0        0.0        0.0        0.0        0.0        0.0
       0.0        0.0        0.0        0.0        0.0        0.0        0.0        0.0        0.0        0.0
       0.0        0.0        0.0        0.0        0.0        0.0        0.0        0.0        0.0        0.0
       0.0        0.0        0.0        0.0        0.0        0.0        0.0        0.0        0.0        0.0
       0.0        0.0        0.0        0.0        0.0        0.0        0.0        0.0       11.8       15.1
      18.1       21.4       25.6
      32.1       25.8       21.1       17.1       13.1       10.2        0.0        0.0        0.0        0.0
       0.0        0.0        0.0        0.0        0.0        0.0        0.0        0.0        0.0        0.0
       0.0        0.0        0.0        0.0        0.0        0.0        0.0        0.0        0.0        0.0
       0.0        0.0        0.0        0.0        0.0        0.0        0.0        0.0        0.0        0.0
       0.0        0.0        0.0        0.0        0.0        0.0        0.0        0.0        0.0        0.0
       0.0        0.0        0.0        0.0        0.0        0.0        0.0        0.0        0.0        0.0
       0.0        0.0        0.0        0.0        0.0        0.0        0.0        0.0       10.3       13.2
      16.5       20.0       25.6
      32.1       26.5       22.0       17.7       14.6       11.2        0.0        0.0        0.0        0.0
       0.0        0.0        0.0        0.0        0.0        0.0        0.0        0.0        0.0        0.0
       0.0        0.0        0.0        0.0        0.0        0.0        0.0        0.0        0.0        0.0
       0.0        0.0        0.0        0.0        0.0        0.0        0.0        0.0        0.0        0.0
       0.0        0.0        0.0        0.0        0.0        0.0        0.0        0.0        0.0        0.0
       0.0        0.0        0.0        0.0        0.0        0.0        0.0        0.0        0.0        0.0
       0.0        0.0        0.0        0.0        0.0        0.0        0.0        0.0       11.8       15.1
      18.1       21.4       25.6
      32.1       28.3       24.4       21.5       18.5       15.4       13.2       10.9        0.0        0.0
       0.0        0.0        0.0        0.0        0.0        0.0        0.0        0.0        0.0        0.0
       0.0        0.0        0.0        0.0        0.0        0.0        0.0        0.0        0.0        0.0
       0.0        0.0        0.0        0.0        0.0        0.0        0.0        0.0        0.0        0.0
       0.0        0.0        0.0        0.0        0.0        0.0        0.0        0.0        0.0        0.0
       0.0        0.0        0.0        0.0        0.0        0.0        0.0        0.0        0.0        0.0
       0.0        0.0        0.0        0.0        0.0        0.0       12.2       14.0       15.8       18.2
      20.2       23.3       25.6
      32.1       30.6       28.3       26.4       24.5       23.0       21.3       19.7       18.1       16.6
      15.0       13.9       12.7       11.6       10.6        0.0        0.0        0.0        0.0        0.0
       0.0        0.0        0.0        0.0        0.0        0.0        0.0        0.0        0.0        0.0
       0.0        0.0        0.0        0.0        0.0        0.0        0.0        0.0        0.0        0.0
       0.0        0.0        0.0        0.0        0.0        0.0        0.0        0.0        0.0        0.0
       0.0        0.0        0.0        0.0        0.0        0.0        0.0       12.2       12.7       13.4
      14.0       14.7       15.0       16.3       16.6       17.6       18.5       19.7       20.8       22.5
      23.3       24.9       25.6
      32.1       33.0       32.7       33.2       33.1       33.1       32.8       32.8       33.0       32.9
      32.8       32.7       32.6       32.8       32.8       32.4       32.2       32.5       32.5       32.5
      32.2       32.2       32.1       32.1       31.9       31.7       31.8       31.6       31.5       31.4
      31.0       31.2       31.0       30.9       30.5       30.4       30.1       35.0       34.3       34.2
      34.0       33.8       33.2       33.1       32.4       32.4       31.9       31.8       31.2       31.0
      30.6       30.1       29.7       29.6       29.3       29.0       28.6       28.5       28.0       28.2
      27.6       27.7       27.4       27.2       27.0       26.9       26.6       26.6       26.7       26.2
      26.5       26.3       25.6
      32.1       34.7       37.4       39.6       41.5       44.1       46.4       48.5       50.3       52.8
      54.6       57.2       59.4       61.2       63.1       65.6       67.6       69.3       71.2       73.0
      74.7       76.2       77.7       78.9       80.3       81.4       82.5       83.3       84.0       84.5
      84.8       85.4       85.6       85.2       85.2       85.3       85.0       82.7       82.3       81.6
      80.1       79.1       78.5       77.4       75.8       74.3       73.3       71.1       69.6       68.5
      66.6       65.0       63.2       61.1       59.3       57.5       55.9       53.9       52.1       50.0
      48.2       46.3       44.5       42.7       40.4       38.7       36.7       35.0       33.2       31.3
      30.0       28.3       25.6
      32.1       36.3       40.5       44.6       48.5       52.8       57.6       61.6       66.3       70.8
      75.3       80.0       84.2       89.4       93.9       98.3      102.6      107.6      111.9      115.6
     120.2      124.0      127.6      131.1      134.6      137.6      140.2      142.8      144.9      147.1
     148.7      150.1      151.1      151.6      151.8      152.1      151.8      148.8      147.3      146.3
     144.3      142.4      140.3      137.9      134.5      131.3      128.3      124.5      120.9      117.5
     113.5      109.4      105.2      100.5       96.5       92.1       88.0       83.5       79.5       75.0
      70.8       66.2       62.3       58.5       54.2       50.3       47.0       42.9       39.8       35.9
      32.5       28.9       25.6
      32.1       36.3       42.3       47.7       53.1       59.2       65.1       71.1       77.4       83.9
      90.2       97.1      103.7      111.0      117.8      124.5      131.5      138.5      145.1      151.3
     158.3      164.2      170.3      175.5      180.3      185.1      189.7      193.4      196.8      199.8
     202.4      204.6      206.2      207.4      208.2      208.1      208.1      205.8      204.4      202.4
     200.5      197.8      194.6      190.8      187.2      182.8      177.8      172.8      167.4      161.2
     155.7      148.6      142.2      135.9      129.0      122.3      115.6      108.9      101.7       95.7
      89.1       82.7       76.5       70.1       65.0       59.3       53.6       48.4       43.4       38.7
      34.0       29.5       25.6
      32.1       36.5       42.5       48.5       54.5       60.8       67.6       74.1       81.1       88.2
      95.4      102.6      110.8      118.4      126.2      134.4      142.2      150.1      157.7      165.1
     172.4      179.0      185.3      191.4      197.2      202.3      207.3      211.6      215.4      218.6
     221.6      224.1      225.9      227.5      228.3      228.2      228.3      227.6      226.8      224.9
     222.0      219.3      216.2      212.4      207.4      202.8      197.4      192.0      186.1      179.1
     172.8      165.6      158.5      150.6      142.9      135.0      127.4      119.5      111.6      104.1
      96.5       89.4       82.1       75.5       68.5       62.1       56.6       50.6       45.0       39.7
      34.7       29.8       25.6
