IESNA:LM-63-2002
[TEST]253P231
[TESTLAB]METALUX LABORATORIES
[ISSUEDATE]05/12/08
[MANUFAC]COOPER LIGHTING - SHAPER
[LUMCAT]1215-XX-36-CFL/3/27-T5C/1/40
[LUMINAIRE]SHAPER 36 INCH 1215 SERIES DIRECT/INDIRECT INDOOR PENDANT FIXTURE 
[MORE]WITH SHALLOW BOWL
[LAMP]THREE 24 WATT BIAX COMPACT FLUORESCENT AND ONE 40 WATT T5 CIRCLINE
[MORE](3)F24BX - 1800 LUMENS AND (1)TL5C40W/830 - 3300 LUMENS 
[OTHER]THIS FILE WAS PRORATED FROM TEST NO: 253P231
TILT=NONE
1 8700 1 73 25 1 1 -3 -3 0.520833
1 1 112
0 2.5 5 7.5 10 12.5 15 17.5 20 22.5
25 27.5 30 32.5 35 37.5 40 42.5 45 47.5
50 52.5 55 57.5 60 62.5 65 67.5 70 72.5
75 77.5 80 82.5 85 87.5 90 92.5 95 97.5
100 102.5 105 107.5 110 112.5 115 117.5 120 122.5
125 127.5 130 132.5 135 137.5 140 142.5 145 147.5
150 152.5 155 157.5 160 162.5 165 167.5 170 172.5
175 177.5 180
0 20 30 40 60 80 90 100 120 140
150 160 180 200 210 220 240 260 270 280
300 320 330 340 360
489 489 488 486 483 478 473 466 459 450
441 430 418 406 393 379 364 349 333 316
299 282 264 245 227 208 190 172 154 137
121 105 91 77 65 54 3 57.7 169.7 301.1
429.7 556 735.4 870.9 946.3 976.6 1005.7 1068 1105.1 1137.7
1181.7 1254.9 1302.3 1294.9 1257.7 1221.7 1176 1121.1 1048 962.3
884 808.6 741.7 681.1 626.3 577.1 533.1 492 454.3 420.6
397.1 385.7 382.3
489 489 488 486 483 478 473 466 459 450
441 430 418 406 393 379 364 349 333 316
299 282 264 245 227 208 190 172 154 137
121 105 91 77 65 54 6 58.9 157.1 268.6
336.6 415.4 540 669.7 774.9 870.9 953.7 1012.6 1054.3 1074.3
1116.6 1148 1140.6 1120 1102.3 1101.7 1104.6 1090.9 1048 992.6
925.7 856.6 777.1 696.6 624 570.9 530.3 491.4 456 424.6
407.4 396.6 382.3
489 489 488 486 483 478 473 466 459 450
441 430 418 406 393 379 364 349 333 316
299 282 264 245 227 208 190 172 154 137
121 105 91 77 65 54 5 56 149.7 247.4
306.9 384 472.6 587.4 679.4 782.3 897.7 988.6 1052 1098.9
1117.1 1110.3 1114.3 1117.1 1105.7 1078.3 1055.4 1041.7 1033.1 997.7
934.3 857.7 787.4 714.3 640 575.4 528 490.3 454.9 421.7
397.1 389.1 382.3
489 489 488 486 483 478 473 466 459 450
441 430 418 406 393 379 364 349 333 316
299 282 264 245 227 208 190 172 154 137
121 105 91 77 65 54 8 69.1 166.3 267.4
359.4 449.7 530.3 632.6 745.7 836 954.9 1062.9 1148 1178.3
1176 1156 1156.6 1156 1138.3 1098.3 1050.9 1024 1011.4 987.4
937.1 865.7 794.9 728 655.4 583.4 526.9 488.6 453.1 421.1
397.1 384.6 382.3
489 489 488 486 483 478 473 466 459 450
441 430 418 406 393 379 364 349 333 316
299 282 264 245 227 208 190 172 154 137
121 105 91 77 65 54 13 66.9 178.3 290.9
420.6 529.7 620.6 719.4 862.3 973.7 1076.6 1186.3 1260.6 1286.3
1285.7 1270.9 1241.7 1222.3 1193.1 1138.9 1078.3 1015.4 985.1 971.4
943.4 887.4 816.6 748 674.9 595.4 528.6 483.4 448 418.9
398.3 384.6 382.3
489 489 488 486 483 478 473 466 459 450
441 430 418 406 393 379 364 349 333 316
299 282 264 245 227 208 190 172 154 137
121 105 91 77 65 54 4 40 136 251.4
336 442.9 528 628 753.1 872 1001.7 1089.7 1160.6 1199.4
1200 1169.7 1170.9 1170.9 1153.1 1114.3 1065.1 1039.4 1024.6 998.3
944.6 870.9 798.9 729.1 655.4 582.3 528 489.1 453.7 422.3
397.1 384.6 382.3
489 489 488 486 483 478 473 466 459 450
441 430 418 406 393 379 364 349 333 316
299 282 264 245 227 208 190 172 154 137
121 105 91 77 65 54 2 31.4 127.4 238.3
316.6 405.1 489.7 639.4 753.7 854.9 958.3 1039.4 1095.4 1141.7
1154.3 1157.1 1150.3 1138.3 1124.6 1090.9 1070.9 1062.9 1050.9 1011.4
942.3 864.6 791.4 712.6 635.4 571.4 526.3 488.6 453.1 419.4
395.4 383.4 382.3
489 489 488 486 483 478 473 466 459 450
441 430 418 406 393 379 364 349 333 316
299 282 264 245 227 208 190 172 154 137
121 105 91 77 65 54 5 35.4 131.4 253.7
344.6 422.3 577.7 729.7 840.6 936 1003.4 1066.9 1108.6 1118.9
1161.1 1185.1 1173.7 1142.3 1117.7 1123.4 1126.9 1110.9 1064.6 1004.6
935.4 860 775.4 692.6 620.6 568.6 528 489.1 453.7 421.1
396.6 384 382.3
489 489 488 486 483 478 473 466 459 450
441 430 418 406 393 379 364 349 333 316
299 282 264 245 227 208 190 172 154 137
121 105 91 77 65 54 3 57.7 169.7 301.1
429.7 556 735.4 870.9 946.3 976.6 1005.7 1068 1105.1 1137.7
1181.7 1254.9 1302.3 1294.9 1257.7 1221.7 1176 1121.1 1048 962.3
884 808.6 741.7 681.1 626.3 577.1 533.1 492 454.3 420.6
397.1 385.7 382.3
489 489 488 486 483 478 473 466 459 450
441 430 418 406 393 379 364 349 333 316
299 282 264 245 227 208 190 172 154 137
121 105 91 77 65 54 6 58.9 157.1 268.6
336.6 415.4 540 669.7 774.9 870.9 953.7 1012.6 1054.3 1074.3
1116.6 1148 1140.6 1120 1102.3 1101.7 1104.6 1090.9 1048 992.6
925.7 856.6 777.1 696.6 624 570.9 530.3 491.4 456 424.6
407.4 396.6 382.3
489 489 488 486 483 478 473 466 459 450
441 430 418 406 393 379 364 349 333 316
299 282 264 245 227 208 190 172 154 137
121 105 91 77 65 54 5 56 149.7 247.4
306.9 384 472.6 587.4 679.4 782.3 897.7 988.6 1052 1098.9
1117.1 1110.3 1114.3 1117.1 1105.7 1078.3 1055.4 1041.7 1033.1 997.7
934.3 857.7 787.4 714.3 640 575.4 528 490.3 454.9 421.7
397.1 389.1 382.3
489 489 488 486 483 478 473 466 459 450
441 430 418 406 393 379 364 349 333 316
299 282 264 245 227 208 190 172 154 137
121 105 91 77 65 54 8 69.1 166.3 267.4
359.4 449.7 530.3 632.6 745.7 836 954.9 1062.9 1148 1178.3
1176 1156 1156.6 1156 1138.3 1098.3 1050.9 1024 1011.4 987.4
937.1 865.7 794.9 728 655.4 583.4 526.9 488.6 453.1 421.1
397.1 384.6 382.3
489 489 488 486 483 478 473 466 459 450
441 430 418 406 393 379 364 349 333 316
299 282 264 245 227 208 190 172 154 137
121 105 91 77 65 54 13 66.9 178.3 290.9
420.6 529.7 620.6 719.4 862.3 973.7 1076.6 1186.3 1260.6 1286.3
1285.7 1270.9 1241.7 1222.3 1193.1 1138.9 1078.3 1015.4 985.1 971.4
943.4 887.4 816.6 748 674.9 595.4 528.6 483.4 448 418.9
398.3 384.6 382.3
489 489 488 486 483 478 473 466 459 450
441 430 418 406 393 379 364 349 333 316
299 282 264 245 227 208 190 172 154 137
121 105 91 77 65 54 4 40 136 251.4
336 442.9 528 628 753.1 872 1001.7 1089.7 1160.6 1199.4
1200 1169.7 1170.9 1170.9 1153.1 1114.3 1065.1 1039.4 1024.6 998.3
944.6 870.9 798.9 729.1 655.4 582.3 528 489.1 453.7 422.3
397.1 384.6 382.3
489 489 488 486 483 478 473 466 459 450
441 430 418 406 393 379 364 349 333 316
299 282 264 245 227 208 190 172 154 137
121 105 91 77 65 54 2 31.4 127.4 238.3
316.6 405.1 489.7 639.4 753.7 854.9 958.3 1039.4 1095.4 1141.7
1154.3 1157.1 1150.3 1138.3 1124.6 1090.9 1070.9 1062.9 1050.9 1011.4
942.3 864.6 791.4 712.6 635.4 571.4 526.3 488.6 453.1 419.4
395.4 383.4 382.3
489 489 488 486 483 478 473 466 459 450
441 430 418 406 393 379 364 349 333 316
299 282 264 245 227 208 190 172 154 137
121 105 91 77 65 54 5 35.4 131.4 253.7
344.6 422.3 577.7 729.7 840.6 936 1003.4 1066.9 1108.6 1118.9
1161.1 1185.1 1173.7 1142.3 1117.7 1123.4 1126.9 1110.9 1064.6 1004.6
935.4 860 775.4 692.6 620.6 568.6 528 489.1 453.7 421.1
396.6 384 382.3
489 489 488 486 483 478 473 466 459 450
441 430 418 406 393 379 364 349 333 316
299 282 264 245 227 208 190 172 154 137
121 105 91 77 65 54 3 57.7 169.7 301.1
429.7 556 735.4 870.9 946.3 976.6 1005.7 1068 1105.1 1137.7
1181.7 1254.9 1302.3 1294.9 1257.7 1221.7 1176 1121.1 1048 962.3
884 808.6 741.7 681.1 626.3 577.1 533.1 492 454.3 420.6
397.1 385.7 382.3
489 489 488 486 483 478 473 466 459 450
441 430 418 406 393 379 364 349 333 316
299 282 264 245 227 208 190 172 154 137
121 105 91 77 65 54 6 58.9 157.1 268.6
336.6 415.4 540 669.7 774.9 870.9 953.7 1012.6 1054.3 1074.3
1116.6 1148 1140.6 1120 1102.3 1101.7 1104.6 1090.9 1048 992.6
925.7 856.6 777.1 696.6 624 570.9 530.3 491.4 456 424.6
407.4 396.6 382.3
489 489 488 486 483 478 473 466 459 450
441 430 418 406 393 379 364 349 333 316
299 282 264 245 227 208 190 172 154 137
121 105 91 77 65 54 5 56 149.7 247.4
306.9 384 472.6 587.4 679.4 782.3 897.7 988.6 1052 1098.9
1117.1 1110.3 1114.3 1117.1 1105.7 1078.3 1055.4 1041.7 1033.1 997.7
934.3 857.7 787.4 714.3 640 575.4 528 490.3 454.9 421.7
397.1 389.1 382.3
489 489 488 486 483 478 473 466 459 450
441 430 418 406 393 379 364 349 333 316
299 282 264 245 227 208 190 172 154 137
121 105 91 77 65 54 8 69.1 166.3 267.4
359.4 449.7 530.3 632.6 745.7 836 954.9 1062.9 1148 1178.3
1176 1156 1156.6 1156 1138.3 1098.3 1050.9 1024 1011.4 987.4
937.1 865.7 794.9 728 655.4 583.4 526.9 488.6 453.1 421.1
397.1 384.6 382.3
489 489 488 486 483 478 473 466 459 450
441 430 418 406 393 379 364 349 333 316
299 282 264 245 227 208 190 172 154 137
121 105 91 77 65 54 13 66.9 178.3 290.9
420.6 529.7 620.6 719.4 862.3 973.7 1076.6 1186.3 1260.6 1286.3
1285.7 1270.9 1241.7 1222.3 1193.1 1138.9 1078.3 1015.4 985.1 971.4
943.4 887.4 816.6 748 674.9 595.4 528.6 483.4 448 418.9
398.3 384.6 382.3
489 489 488 486 483 478 473 466 459 450
441 430 418 406 393 379 364 349 333 316
299 282 264 245 227 208 190 172 154 137
121 105 91 77 65 54 4 40 136 251.4
336 442.9 528 628 753.1 872 1001.7 1089.7 1160.6 1199.4
1200 1169.7 1170.9 1170.9 1153.1 1114.3 1065.1 1039.4 1024.6 998.3
944.6 870.9 798.9 729.1 655.4 582.3 528 489.1 453.7 422.3
397.1 384.6 382.3
489 489 488 486 483 478 473 466 459 450
441 430 418 406 393 379 364 349 333 316
299 282 264 245 227 208 190 172 154 137
121 105 91 77 65 54 2 31.4 127.4 238.3
316.6 405.1 489.7 639.4 753.7 854.9 958.3 1039.4 1095.4 1141.7
1154.3 1157.1 1150.3 1138.3 1124.6 1090.9 1070.9 1062.9 1050.9 1011.4
942.3 864.6 791.4 712.6 635.4 571.4 526.3 488.6 453.1 419.4
395.4 383.4 382.3
489 489 488 486 483 478 473 466 459 450
441 430 418 406 393 379 364 349 333 316
299 282 264 245 227 208 190 172 154 137
121 105 91 77 65 54 5 35.4 131.4 253.7
344.6 422.3 577.7 729.7 840.6 936 1003.4 1066.9 1108.6 1118.9
1161.1 1185.1 1173.7 1142.3 1117.7 1123.4 1126.9 1110.9 1064.6 1004.6
935.4 860 775.4 692.6 620.6 568.6 528 489.1 453.7 421.1
396.6 384 382.3
489 489 488 486 483 478 473 466 459 450
441 430 418 406 393 379 364 349 333 316
299 282 264 245 227 208 190 172 154 137
121 105 91 77 65 54 3 57.7 169.7 301.1
429.7 556 735.4 870.9 946.3 976.6 1005.7 1068 1105.1 1137.7
1181.7 1254.9 1302.3 1294.9 1257.7 1221.7 1176 1121.1 1048 962.3
884 808.6 741.7 681.1 626.3 577.1 533.1 492 454.3 420.6
397.1 385.7 382.3
