IESNA:LM-63-2002
[TEST]253P254
[TESTLAB]METALUX LABORATORIES
[ISSUEDATE]05/12/08
[MANUFAC]COOPER LIGHTING - SHAPER
[LUMCAT]1215-XX-44-CFL/4/27-T5C/1/40
[LUMINAIRE]SHAPER 44 INCH 1215 SERIES DIRECT/INDIRECT INDOOR PENDANT FIXTURE
[MORE]WITH SHALLOW BOWL
[LAMP]FOUR 24 WATT BIAX COMPACT FLUORESCENT LAMPS AND ONE 40 WATT T5 CIRCLINE
[MORE](4)F24BX - 1800 LUMENS AND (1)TL5C40W/830 - 3300 LUMENS
[OTHER]THIS FILE WAS PRORATED FROM TEST NO: 253P254
TILT=NONE
1 10500 1 73 17 1 1 -3.666667 -3.666667 0.6875
1 1 136
0 2.5 5 7.5 10 12.5 15 17.5 20 22.5
25 27.5 30 32.5 35 37.5 40 42.5 45 47.5
50 52.5 55 57.5 60 62.5 65 67.5 70 72.5
75 77.5 80 82.5 85 87.5 90 92.5 95 97.5
100 102.5 105 107.5 110 112.5 115 117.5 120 122.5
125 127.5 130 132.5 135 137.5 140 142.5 145 147.5
150 152.5 155 157.5 160 162.5 165 167.5 170 172.5
175 177.5 180
0 22.5 45 67.5 90 112.5 135 157.5 180 202.5
225 247.5 270 292.5 315 337.5 360
388 388 388 386 383 380 376 371 365 358
351 342 333 324 314 303 291 279 267 254
241 227 213 198 184 170 156 142 129 116
103 91 80 69 59 50 3 168.6 396.6 570.9
667.4 718.9 812.6 947.4 1094.3 1218.3 1384.6 1567.4 1673.1 1758.9
1811.4 1853.1 1877.1 1870.9 1849.7 1804 1769.7 1708 1669.7 1642.9
1604 1548.6 1432 1282.9 1129.1 983.4 848 746.3 675.4 614.9
568.6 550.3 532.6
388 388 388 386 383 380 376 371 365 358
351 342 333 324 314 303 291 279 267 254
241 227 213 198 184 170 156 142 129 116
103 91 80 69 59 50 6 88.6 290.3 488.6
674.3 831.4 988.6 1186.3 1327.4 1446.3 1596.6 1716 1794.3 1864.6
1919.4 1949.7 1946.9 1920.6 1871.4 1831.4 1764 1709.7 1685.7 1642.3
1593.7 1497.7 1353.1 1200.6 1056 918.3 803.4 720 657.1 603.4
560 533.7 532.6
388 388 388 386 383 380 376 371 365 358
351 342 333 324 314 303 291 279 267 254
241 227 213 198 184 170 156 142 129 116
103 91 80 69 59 50 4 71.4 260 406.3
560 745.7 940 1150.9 1434.3 1574.3 1680 1808 1882.9 1892.6
1881.7 1847.4 1825.7 1792 1757.7 1746.9 1723.4 1698.9 1648.6 1532
1392 1253.1 1124.6 998.3 886.3 794.3 730.3 673.7 619.4 577.1
548 531.4 532.6
388 388 388 386 383 380 376 371 365 358
351 342 333 324 314 303 291 279 267 254
241 227 213 198 184 170 156 142 129 116
103 91 80 69 59 50 2 85.1 230.9 372
520.6 686.9 816 912 980.6 1043.4 1157.1 1261.7 1304 1396
1468 1501.1 1470.9 1401.1 1323.4 1260 1202.3 1141.7 1068 1012.6
975.4 939.4 881.7 820.6 765.1 706.3 651.4 612.6 581.1 556
540.6 534.9 532.6
388 388 388 386 383 380 376 371 365 358
351 342 333 324 314 303 291 279 267 254
241 227 213 198 184 170 156 142 129 116
103 91 80 69 59 50 2 25.7 87.4 146.3
196 222.3 284 345.7 400 426.3 482.9 570.3 628.6 682.3
729.7 802.9 857.7 869.7 863.4 847.4 844 843.4 832.6 802.3
787.4 783.4 772 733.7 694.3 657.1 616.6 584.6 564 546.9
541.1 554.9 532.6
388 388 388 386 383 380 376 371 365 358
351 342 333 324 314 303 291 279 267 254
241 227 213 198 184 170 156 142 129 116
103 91 80 69 59 50 11 78.3 201.7 314.9
433.1 565.1 712.6 816.6 872.6 925.7 998.3 1073.7 1127.4 1203.4
1287.4 1338.3 1322.3 1279.4 1224 1176 1128 1077.1 1010.3 957.7
927.4 898.3 848 790.3 737.1 684.6 633.7 597.1 570.9 549.1
536 532 532.6
388 388 388 386 383 380 376 371 365 358
351 342 333 324 314 303 291 279 267 254
241 227 213 198 184 170 156 142 129 116
103 91 80 69 59 50 7 101.7 271.4 384
514.3 665.7 796 898.9 1091.4 1277.7 1437.1 1603.4 1715.4 1746.3
1739.4 1708 1697.7 1686.9 1660 1610.3 1579.4 1568 1537.7 1449.1
1329.1 1209.1 1094.3 973.1 860 768 706.3 650.3 599.4 562.9
540.6 529.7 532.6
388 388 388 386 383 380 376 371 365 358
351 342 333 324 314 303 291 279 267 254
241 227 213 198 184 170 156 142 129 116
103 91 80 69 59 50 7 90.3 267.4 435.4
538.9 664.6 813.7 982.3 1086.9 1181.7 1336.6 1496.6 1612 1725.7
1841.7 1922.9 1929.1 1895.4 1831.4 1793.1 1745.1 1689.7 1616.6 1557.1
1512.6 1440 1306.3 1166.9 1040.6 904 783.4 701.7 640 590.9
557.1 542.3 532.6
388 388 388 386 383 380 376 371 365 358
351 342 333 324 314 303 291 279 267 254
241 227 213 198 184 170 156 142 129 116
103 91 80 69 59 50 1 102.3 283.4 432.6
533.1 577.7 696 834.9 968.6 1050.3 1197.1 1398.9 1518.3 1622.9
1703.4 1815.4 1891.4 1889.7 1853.7 1788.6 1752 1704.6 1655.4 1584.6
1529.1 1484 1397.1 1253.7 1108.6 973.1 837.7 732 661.1 600.6
556.6 536 532.6
388 388 388 386 383 380 376 371 365 358
351 342 333 324 314 303 291 279 267 254
241 227 213 198 184 170 156 142 129 116
103 91 80 69 59 50 2 79.4 266.9 443.4
606.3 744 896 1056 1165.1 1255.4 1399.4 1553.1 1675.4 1788
1909.1 1997.7 2001.7 1964.6 1895.4 1846.3 1787.4 1729.7 1660.6 1589.7
1540.6 1468.6 1341.7 1197.1 1061.7 928.6 807.4 718.9 652 596
555.4 534.9 532.6
388 388 388 386 383 380 376 371 365 358
351 342 333 324 314 303 291 279 267 254
241 227 213 198 184 170 156 142 129 116
103 91 80 69 59 50 2 92 277.7 421.7
562.9 736 920.6 1089.1 1323.4 1486.9 1608 1727.4 1806.3 1840
1842.3 1813.1 1792.6 1761.1 1740.6 1729.7 1701.7 1677.7 1632 1536.6
1406.3 1271.4 1144 1020 902.9 802.3 736 678.3 623.4 581.1
552 536 532.6
388 388 388 386 383 380 376 371 365 358
351 342 333 324 314 303 291 279 267 254
241 227 213 198 184 170 156 142 129 116
103 91 80 69 59 50 6 105.7 255.4 415.4
547.4 702.3 825.1 961.1 1068.6 1157.7 1260 1333.1 1366.3 1401.7
1406.3 1402.3 1393.7 1358.9 1313.1 1264 1203.4 1154.3 1120.6 1082.9
1036.6 976 908.6 842.9 777.1 712.6 659.4 621.1 592.6 567.4
548.6 538.3 532.6
388 388 388 386 383 380 376 371 365 358
351 342 333 324 314 303 291 279 267 254
241 227 213 198 184 170 156 142 129 116
103 91 80 69 59 50 2 82.9 183.4 262.9
306.3 339.4 378.9 438.9 508.6 582.9 661.1 730.9 776.6 813.7
836.6 840.6 843.4 853.1 861.7 865.1 866.3 850.3 850.3 866.3
868 853.7 812.6 768.6 720.6 673.1 632.6 604.6 584 566.9
553.1 550.9 532.6
388 388 388 386 383 380 376 371 365 358
351 342 333 324 314 303 291 279 267 254
241 227 213 198 184 170 156 142 129 116
103 91 80 69 59 50 5 87.4 253.7 410.3
588 746.3 877.1 996 1082.9 1168 1251.4 1305.1 1350.3 1393.1
1412 1406.9 1376 1338.3 1294.9 1249.1 1188 1131.4 1101.7 1067.4
1028.6 969.7 900.6 834.9 770.3 709.7 660.6 624.6 595.4 571.4
552 538.9 532.6
388 388 388 386 383 380 376 371 365 358
351 342 333 324 314 303 291 279 267 254
241 227 213 198 184 170 156 142 129 116
103 91 80 69 59 50 3 109.7 322.3 472.6
637.1 812.6 1018.9 1226.9 1485.7 1633.7 1748 1830.3 1841.1 1835.4
1834.9 1813.1 1797.1 1758.9 1726.3 1738.3 1738.3 1722.9 1661.7 1534.9
1401.7 1267.4 1135.4 1004 891.4 803.4 739.4 685.7 633.1 589.7
556 537.7 532.6
388 388 388 386 383 380 376 371 365 358
351 342 333 324 314 303 291 279 267 254
241 227 213 198 184 170 156 142 129 116
103 91 80 69 59 50 9 130.3 354.9 569.1
740.6 897.1 1028.6 1185.7 1321.1 1453.7 1636 1780.6 1864 1954.3
1999.4 2010.3 1988 1945.7 1886.3 1838.3 1769.1 1710.3 1676 1638.9
1593.1 1499.4 1358.3 1213.1 1076.6 934.3 813.1 727.4 664 608
566.3 542.3 532.6
388 388 388 386 383 380 376 371 365 358
351 342 333 324 314 303 291 279 267 254
241 227 213 198 184 170 156 142 129 116
103 91 80 69 59 50 3 168.6 396.6 570.9
667.4 718.9 812.6 947.4 1094.3 1218.3 1384.6 1567.4 1673.1 1758.9
1811.4 1853.1 1877.1 1870.9 1849.7 1804 1769.7 1708 1669.7 1642.9
1604 1548.6 1432 1282.9 1129.1 983.4 848 746.3 675.4 614.9
568.6 550.3 532.6
