IESNA:LM-63-2002
[TEST]253P232
[TESTLAB]METALUX LABORATORIES
[ISSUEDATE]05/12/08
[MANUFAC]COOPER LIGHTING - SHAPER
[LUMCAT]1215-XX-36-CFL/6/39-T5C/1/40
[LUMINAIRE]SHAPER 36 INCH 1215 SERIES DIRECT/INDIRECT INDOOR PENDANT FIXTURE
[MORE]WITH SHALLOW BOWL 
[LAMP]SIX 39 WATT BIAX COMPACT FLUORESCENT LAMPS AND ONE 40 WATTS T5 CIRCLINE
[MORE](6)F39BX - 2850 LUMENS AND (1)TL5C40W/830 - 3300 LUMENS 
[OTHER]THIS FILE WAS PRORATED FROM TEST NO: 253P232
TILT=NONE
1 20400 1 73 25 1 1 -3 -3 0.520833
1 1 274
0 2.5 5 7.5 10 12.5 15 17.5 20 22.5
25 27.5 30 32.5 35 37.5 40 42.5 45 47.5
50 52.5 55 57.5 60 62.5 65 67.5 70 72.5
75 77.5 80 82.5 85 87.5 90 92.5 95 97.5
100 102.5 105 107.5 110 112.5 115 117.5 120 122.5
125 127.5 130 132.5 135 137.5 140 142.5 145 147.5
150 152.5 155 157.5 160 162.5 165 167.5 170 172.5
175 177.5 180
0 20 30 40 60 80 90 100 120 140
150 160 180 200 210 220 240 260 270 280
300 320 330 340 360
489 489 488 486 483 478 473 466 459 450
441 430 418 406 393 379 364 349 333 316
299 282 264 245 227 208 190 172 154 137
121 105 91 77 65 54 20 146.6 408 762.7
1107.4 1444 1842.1 2158.8 2416.6 2613.9 2774 2954 3185.7 3394.7
3587.4 3724.9 3780.1 3809 3873.3 3928.5 3942 3924.9 3867 3777.4
3705 3612.7 3436.3 3231.8 3021.9 2814.7 2618.4 2422 2240.2 2071.9
1972.4 1950.7 1940.7
489 489 488 486 483 478 473 466 459 450
441 430 418 406 393 379 364 349 333 316
299 282 264 245 227 208 190 172 154 137
121 105 91 77 65 54 15 135.7 370 645.1
922 1188 1457.6 1736.2 2008.6 2294.5 2553.2 2796.6 3017.4 3177.5
3283.4 3351.2 3401.9 3482.4 3585.6 3684.2 3733 3738.5 3729.4 3722.2
3673.3 3528.6 3324.1 3116.9 2924.2 2749.6 2583.1 2404.9 2232 2075.5
1983.2 1949.8 1940.7
489 489 488 486 483 478 473 466 459 450
441 430 418 406 393 379 364 349 333 316
299 282 264 245 227 208 190 172 154 137
121 105 91 77 65 54 13 116.7 333 586.3
818.8 1051.3 1277.5 1497.4 1717.2 2005.9 2305.3 2561.4 2791.2 2993
3127.8 3154.9 3191.1 3296 3434.5 3542.1 3619 3633.5 3618.1 3627.2
3572.9 3421.8 3238.1 3051.8 2872.6 2702.5 2539.7 2377.7 2207.6 2064.7
1977.8 1944.3 1940.7
489 489 488 486 483 478 473 466 459 450
441 430 418 406 393 379 364 349 333 316
299 282 264 245 227 208 190 172 154 137
121 105 91 77 65 54 15 138.4 382.7 676.8
941.9 1209.7 1463.9 1711.8 1967.9 2207.6 2476.3 2761.3 2976.7 3124.1
3234.5 3326.8 3388.3 3438.1 3505 3559.3 3597.3 3639.9 3623.6 3516.8
3408.2 3290.6 3134.1 2965.8 2796.6 2626.5 2470.9 2322.5 2172.3 2051.1
1972.4 1938.9 1940.7
489 489 488 486 483 478 473 466 459 450
441 430 418 406 393 379 364 349 333 316
299 282 264 245 227 208 190 172 154 137
121 105 91 77 65 54 20 128.5 401.7 722.9
1044.1 1349.9 1655.7 1932.6 2172.3 2370.5 2611.1 2949.5 3243.6 3490.6
3694.1 3853.4 3947.5 3981 3938.4 3877.8 3817.2 3739.4 3647.1 3516.8
3392.9 3287 3144 2962.2 2764 2562.3 2384 2243.8 2134.3 2038.4
1976.9 1940.7 1940.7
489 489 488 486 483 478 473 466 459 450
441 430 418 406 393 379 364 349 333 316
299 282 264 245 227 208 190 172 154 137
121 105 91 77 65 54 18 101.3 325.7 616.1
918.3 1218.7 1475.7 1687.4 1944.3 2231.1 2506.2 2753.2 2944.1 3110.6
3207.4 3273.4 3333.1 3382.9 3458 3535.8 3572.9 3609.1 3601 3522.2
3424.5 3307.8 3147.7 2979.4 2812 2639.2 2487.2 2337.9 2184.1 2055.6
1976 1941.6 1940.7
489 489 488 486 483 478 473 466 459 450
441 430 418 406 393 379 364 349 333 316
299 282 264 245 227 208 190 172 154 137
121 105 91 77 65 54 12 78.7 288.6 558.2
839.6 1098.4 1330 1597.8 1847.5 2127.1 2407.6 2647.3 2867.2 3050.9
3162.1 3193.8 3200.1 3293.3 3426.3 3529.5 3610 3625.4 3610 3626.3
3586.5 3433.6 3249 3060.8 2876.2 2707 2547.8 2381.3 2214.9 2068.3
1979.6 1945.2 1940.7
489 489 488 486 483 478 473 466 459 450
441 430 418 406 393 379 364 349 333 316
299 282 264 245 227 208 190 172 154 137
121 105 91 77 65 54 21 105 336.6 653.2
955.4 1243.1 1584.2 1887.3 2146.1 2425.7 2680.8 2915.1 3102.4 3228.2
3311.4 3372 3430 3493.3 3586.5 3679.7 3725.8 3748.4 3749.3 3732.1
3678.8 3536.7 3332.2 3124.1 2930.5 2754.1 2581.3 2403 2231.1 2075.5
1980.5 1948.9 1940.7
489 489 488 486 483 478 473 466 459 450
441 430 418 406 393 379 364 349 333 316
299 282 264 245 227 208 190 172 154 137
121 105 91 77 65 54 20 146.6 408 762.7
1107.4 1444 1842.1 2158.8 2416.6 2613.9 2774 2954 3185.7 3394.7
3587.4 3724.9 3780.1 3809 3873.3 3928.5 3942 3924.9 3867 3777.4
3705 3612.7 3436.3 3231.8 3021.9 2814.7 2618.4 2422 2240.2 2071.9
1972.4 1950.7 1940.7
489 489 488 486 483 478 473 466 459 450
441 430 418 406 393 379 364 349 333 316
299 282 264 245 227 208 190 172 154 137
121 105 91 77 65 54 15 135.7 370 645.1
922 1188 1457.6 1736.2 2008.6 2294.5 2553.2 2796.6 3017.4 3177.5
3283.4 3351.2 3401.9 3482.4 3585.6 3684.2 3733 3738.5 3729.4 3722.2
3673.3 3528.6 3324.1 3116.9 2924.2 2749.6 2583.1 2404.9 2232 2075.5
1983.2 1949.8 1940.7
489 489 488 486 483 478 473 466 459 450
441 430 418 406 393 379 364 349 333 316
299 282 264 245 227 208 190 172 154 137
121 105 91 77 65 54 13 116.7 333 586.3
818.8 1051.3 1277.5 1497.4 1717.2 2005.9 2305.3 2561.4 2791.2 2993
3127.8 3154.9 3191.1 3296 3434.5 3542.1 3619 3633.5 3618.1 3627.2
3572.9 3421.8 3238.1 3051.8 2872.6 2702.5 2539.7 2377.7 2207.6 2064.7
1977.8 1944.3 1940.7
489 489 488 486 483 478 473 466 459 450
441 430 418 406 393 379 364 349 333 316
299 282 264 245 227 208 190 172 154 137
121 105 91 77 65 54 15 138.4 382.7 676.8
941.9 1209.7 1463.9 1711.8 1967.9 2207.6 2476.3 2761.3 2976.7 3124.1
3234.5 3326.8 3388.3 3438.1 3505 3559.3 3597.3 3639.9 3623.6 3516.8
3408.2 3290.6 3134.1 2965.8 2796.6 2626.5 2470.9 2322.5 2172.3 2051.1
1972.4 1938.9 1940.7
489 489 488 486 483 478 473 466 459 450
441 430 418 406 393 379 364 349 333 316
299 282 264 245 227 208 190 172 154 137
121 105 91 77 65 54 20 128.5 401.7 722.9
1044.1 1349.9 1655.7 1932.6 2172.3 2370.5 2611.1 2949.5 3243.6 3490.6
3694.1 3853.4 3947.5 3981 3938.4 3877.8 3817.2 3739.4 3647.1 3516.8
3392.9 3287 3144 2962.2 2764 2562.3 2384 2243.8 2134.3 2038.4
1976.9 1940.7 1940.7
489 489 488 486 483 478 473 466 459 450
441 430 418 406 393 379 364 349 333 316
299 282 264 245 227 208 190 172 154 137
121 105 91 77 65 54 18 101.3 325.7 616.1
918.3 1218.7 1475.7 1687.4 1944.3 2231.1 2506.2 2753.2 2944.1 3110.6
3207.4 3273.4 3333.1 3382.9 3458 3535.8 3572.9 3609.1 3601 3522.2
3424.5 3307.8 3147.7 2979.4 2812 2639.2 2487.2 2337.9 2184.1 2055.6
1976 1941.6 1940.7
489 489 488 486 483 478 473 466 459 450
441 430 418 406 393 379 364 349 333 316
299 282 264 245 227 208 190 172 154 137
121 105 91 77 65 54 12 78.7 288.6 558.2
839.6 1098.4 1330 1597.8 1847.5 2127.1 2407.6 2647.3 2867.2 3050.9
3162.1 3193.8 3200.1 3293.3 3426.3 3529.5 3610 3625.4 3610 3626.3
3586.5 3433.6 3249 3060.8 2876.2 2707 2547.8 2381.3 2214.9 2068.3
1979.6 1945.2 1940.7
489 489 488 486 483 478 473 466 459 450
441 430 418 406 393 379 364 349 333 316
299 282 264 245 227 208 190 172 154 137
121 105 91 77 65 54 21 105 336.6 653.2
955.4 1243.1 1584.2 1887.3 2146.1 2425.7 2680.8 2915.1 3102.4 3228.2
3311.4 3372 3430 3493.3 3586.5 3679.7 3725.8 3748.4 3749.3 3732.1
3678.8 3536.7 3332.2 3124.1 2930.5 2754.1 2581.3 2403 2231.1 2075.5
1980.5 1948.9 1940.7
489 489 488 486 483 478 473 466 459 450
441 430 418 406 393 379 364 349 333 316
299 282 264 245 227 208 190 172 154 137
121 105 91 77 65 54 20 146.6 408 762.7
1107.4 1444 1842.1 2158.8 2416.6 2613.9 2774 2954 3185.7 3394.7
3587.4 3724.9 3780.1 3809 3873.3 3928.5 3942 3924.9 3867 3777.4
3705 3612.7 3436.3 3231.8 3021.9 2814.7 2618.4 2422 2240.2 2071.9
1972.4 1950.7 1940.7
489 489 488 486 483 478 473 466 459 450
441 430 418 406 393 379 364 349 333 316
299 282 264 245 227 208 190 172 154 137
121 105 91 77 65 54 15 135.7 370 645.1
922 1188 1457.6 1736.2 2008.6 2294.5 2553.2 2796.6 3017.4 3177.5
3283.4 3351.2 3401.9 3482.4 3585.6 3684.2 3733 3738.5 3729.4 3722.2
3673.3 3528.6 3324.1 3116.9 2924.2 2749.6 2583.1 2404.9 2232 2075.5
1983.2 1949.8 1940.7
489 489 488 486 483 478 473 466 459 450
441 430 418 406 393 379 364 349 333 316
299 282 264 245 227 208 190 172 154 137
121 105 91 77 65 54 13 116.7 333 586.3
818.8 1051.3 1277.5 1497.4 1717.2 2005.9 2305.3 2561.4 2791.2 2993
3127.8 3154.9 3191.1 3296 3434.5 3542.1 3619 3633.5 3618.1 3627.2
3572.9 3421.8 3238.1 3051.8 2872.6 2702.5 2539.7 2377.7 2207.6 2064.7
1977.8 1944.3 1940.7
489 489 488 486 483 478 473 466 459 450
441 430 418 406 393 379 364 349 333 316
299 282 264 245 227 208 190 172 154 137
121 105 91 77 65 54 15 138.4 382.7 676.8
941.9 1209.7 1463.9 1711.8 1967.9 2207.6 2476.3 2761.3 2976.7 3124.1
3234.5 3326.8 3388.3 3438.1 3505 3559.3 3597.3 3639.9 3623.6 3516.8
3408.2 3290.6 3134.1 2965.8 2796.6 2626.5 2470.9 2322.5 2172.3 2051.1
1972.4 1938.9 1940.7
489 489 488 486 483 478 473 466 459 450
441 430 418 406 393 379 364 349 333 316
299 282 264 245 227 208 190 172 154 137
121 105 91 77 65 54 20 128.5 401.7 722.9
1044.1 1349.9 1655.7 1932.6 2172.3 2370.5 2611.1 2949.5 3243.6 3490.6
3694.1 3853.4 3947.5 3981 3938.4 3877.8 3817.2 3739.4 3647.1 3516.8
3392.9 3287 3144 2962.2 2764 2562.3 2384 2243.8 2134.3 2038.4
1976.9 1940.7 1940.7
489 489 488 486 483 478 473 466 459 450
441 430 418 406 393 379 364 349 333 316
299 282 264 245 227 208 190 172 154 137
121 105 91 77 65 54 18 101.3 325.7 616.1
918.3 1218.7 1475.7 1687.4 1944.3 2231.1 2506.2 2753.2 2944.1 3110.6
3207.4 3273.4 3333.1 3382.9 3458 3535.8 3572.9 3609.1 3601 3522.2
3424.5 3307.8 3147.7 2979.4 2812 2639.2 2487.2 2337.9 2184.1 2055.6
1976 1941.6 1940.7
489 489 488 486 483 478 473 466 459 450
441 430 418 406 393 379 364 349 333 316
299 282 264 245 227 208 190 172 154 137
121 105 91 77 65 54 12 78.7 288.6 558.2
839.6 1098.4 1330 1597.8 1847.5 2127.1 2407.6 2647.3 2867.2 3050.9
3162.1 3193.8 3200.1 3293.3 3426.3 3529.5 3610 3625.4 3610 3626.3
3586.5 3433.6 3249 3060.8 2876.2 2707 2547.8 2381.3 2214.9 2068.3
1979.6 1945.2 1940.7
489 489 488 486 483 478 473 466 459 450
441 430 418 406 393 379 364 349 333 316
299 282 264 245 227 208 190 172 154 137
121 105 91 77 65 54 21 105 336.6 653.2
955.4 1243.1 1584.2 1887.3 2146.1 2425.7 2680.8 2915.1 3102.4 3228.2
3311.4 3372 3430 3493.3 3586.5 3679.7 3725.8 3748.4 3749.3 3732.1
3678.8 3536.7 3332.2 3124.1 2930.5 2754.1 2581.3 2403 2231.1 2075.5
1980.5 1948.9 1940.7
489 489 488 486 483 478 473 466 459 450
441 430 418 406 393 379 364 349 333 316
299 282 264 245 227 208 190 172 154 137
121 105 91 77 65 54 20 146.6 408 762.7
1107.4 1444 1842.1 2158.8 2416.6 2613.9 2774 2954 3185.7 3394.7
3587.4 3724.9 3780.1 3809 3873.3 3928.5 3942 3924.9 3867 3777.4
3705 3612.7 3436.3 3231.8 3021.9 2814.7 2618.4 2422 2240.2 2071.9
1972.4 1950.7 1940.7
