IESNA:LM-63-2002
[TEST]253P227
[TESTLAB]METALUX LABORATORIES
[ISSUEDATE]05/12/08
[MANUFAC]COOPER LIGHTING - SHAPER
[LUMCAT]1215-XX-36-CFL/3/32-T5C/1/40
[LUMINAIRE]SHAPER 36 INCH 1215 SERIES DIRECT/INDIRECT INDOOR PENDANT FIXTURE 
[MORE]WITH SHALLOW BOWL
[LAMP]THREE 32 WATT PLT FLUORESCENT LAMSP AND ONE 40 WATTS CIRCLINE FLUORESCENT
[MORE](3)CF32DT/EIN841 - 2400 LUMENS AND (1)TL5C40W/830 - 3300 LUMENS 
[OTHER]THIS FILE WAS PRORATED FROM TEST NO: 253P227
TILT=NONE
1 10500 1 73 25 1 1 -3 -3 0.520833
1 1 136
0 2.5 5 7.5 10 12.5 15 17.5 20 22.5
25 27.5 30 32.5 35 37.5 40 42.5 45 47.5
50 52.5 55 57.5 60 62.5 65 67.5 70 72.5
75 77.5 80 82.5 85 87.5 90 92.5 95 97.5
100 102.5 105 107.5 110 112.5 115 117.5 120 122.5
125 127.5 130 132.5 135 137.5 140 142.5 145 147.5
150 152.5 155 157.5 160 162.5 165 167.5 170 172.5
175 177.5 180
0 20 30 40 60 80 90 100 120 140
150 160 180 200 210 220 240 260 270 280
300 320 330 340 360
489 489 488 486 483 478 473 466 459 450
441 430 418 406 393 379 364 349 333 316
299 282 264 245 227 208 190 172 154 137
121 105 91 77 65 54 44 201 423 525
573.8 614.2 665.2 750.8 845.2 927.8 999 1065 1125.8 1173
1212 1248 1276.5 1301.2 1322.2 1338 1347 1355.2 1347 1369.5
1383.8 1404.8 1401.8 1376.2 1341 1279.5 1209 1146.8 1077.8 1007.2
936 868.5 819
489 489 488 486 483 478 473 466 459 450
441 430 418 406 393 379 364 349 333 316
299 282 264 245 227 208 190 172 154 137
121 105 91 77 65 54 73 279 463.5 534.8
579 645 711 807.8 909.8 979.5 1057.5 1137.8 1218.8 1301.2
1385.2 1456.5 1494.8 1504.5 1513.5 1507.5 1512.8 1512.8 1494 1467
1434.8 1392 1358.2 1332 1304.2 1261.5 1184.2 1119 1061.2 999.8
935.2 851.2 819
489 489 488 486 483 478 473 466 459 450
441 430 418 406 393 379 364 349 333 316
299 282 264 245 227 208 190 172 154 137
121 105 91 77 65 54 59 184.5 390.8 526.5
573.8 625.5 698.2 831.8 959.2 1047.8 1113 1176.8 1251 1335.8
1433.2 1508.2 1557.8 1606.5 1644 1659 1648.5 1608.8 1556.2 1496.2
1402.5 1352.2 1337.2 1314.8 1279.5 1237.5 1180.5 1106.2 1044 983.2
929.2 844.5 819
489 489 488 486 483 478 473 466 459 450
441 430 418 406 393 379 364 349 333 316
299 282 264 245 227 208 190 172 154 137
121 105 91 77 65 54 59 220.5 370.5 510.8
606 696 793.5 891 979.5 1047.8 1096.5 1151.2 1228.5 1320.8
1422.8 1488 1527 1574.2 1606.5 1622.2 1635 1635.8 1602 1510.5
1432.5 1382.2 1348.5 1305.8 1260 1209.8 1151.2 1089 1032.8 975
908.2 840.8 819
489 489 488 486 483 478 473 466 459 450
441 430 418 406 393 379 364 349 333 316
299 282 264 245 227 208 190 172 154 137
121 105 91 77 65 54 75 235.5 520.5 632.2
691.5 748.5 815.2 885 939.8 1014 1092.8 1184.2 1269.8 1324.5
1354.5 1368 1389.8 1431.8 1442.2 1403.2 1393.5 1377 1361.2 1356
1373.2 1362.8 1357.5 1305.8 1263 1209 1150.5 1101.8 1050 991.5
927 868.5 819
489 489 488 486 483 478 473 466 459 450
441 430 418 406 393 379 364 349 333 316
299 282 264 245 227 208 190 172 154 137
121 105 91 77 65 54 75 224.2 432 558
616.5 657.8 705.8 825.8 967.5 1067.2 1131.8 1172.2 1219.5 1281
1344 1396.5 1455 1506.8 1538.2 1570.5 1576.5 1551 1503 1446.8
1414.5 1393.5 1371 1340.2 1305.8 1252.5 1196.2 1141.5 1083.8 1010.2
932.2 867.8 819
489 489 488 486 483 478 473 466 459 450
441 430 418 406 393 379 364 349 333 316
299 282 264 245 227 208 190 172 154 137
121 105 91 77 65 54 120 240.8 438.8 550.5
590.2 650.2 757.5 885 985.5 1041 1077.8 1122 1189.5 1282.5
1357.5 1412.2 1458.8 1486.5 1500 1498.5 1488.8 1474.5 1455.8 1427.2
1404 1409.2 1400.2 1371 1330.5 1281 1226.2 1169.2 1107.8 1029.8
945.8 874.5 819
489 489 488 486 483 478 473 466 459 450
441 430 418 406 393 379 364 349 333 316
299 282 264 245 227 208 190 172 154 137
121 105 91 77 65 54 96 262.5 486.8 563.2
606.8 671.2 755.2 846 924 988.5 1032.8 1072.5 1150.5 1235.2
1299 1334.2 1356.8 1374.8 1383.8 1389 1399.5 1410 1415.2 1412.2
1423.5 1443 1437.8 1407.8 1358.2 1306.5 1246.5 1185 1112.2 1033.5
954 880.5 819
489 489 488 486 483 478 473 466 459 450
441 430 418 406 393 379 364 349 333 316
299 282 264 245 227 208 190 172 154 137
121 105 91 77 65 54 44 201 423 525
573.8 614.2 665.2 750.8 845.2 927.8 999 1065 1125.8 1173
1212 1248 1276.5 1301.2 1322.2 1338 1347 1355.2 1347 1369.5
1383.8 1404.8 1401.8 1376.2 1341 1279.5 1209 1146.8 1077.8 1007.2
936 868.5 819
489 489 488 486 483 478 473 466 459 450
441 430 418 406 393 379 364 349 333 316
299 282 264 245 227 208 190 172 154 137
121 105 91 77 65 54 73 279 463.5 534.8
579 645 711 807.8 909.8 979.5 1057.5 1137.8 1218.8 1301.2
1385.2 1456.5 1494.8 1504.5 1513.5 1507.5 1512.8 1512.8 1494 1467
1434.8 1392 1358.2 1332 1304.2 1261.5 1184.2 1119 1061.2 999.8
935.2 851.2 819
489 489 488 486 483 478 473 466 459 450
441 430 418 406 393 379 364 349 333 316
299 282 264 245 227 208 190 172 154 137
121 105 91 77 65 54 59 184.5 390.8 526.5
573.8 625.5 698.2 831.8 959.2 1047.8 1113 1176.8 1251 1335.8
1433.2 1508.2 1557.8 1606.5 1644 1659 1648.5 1608.8 1556.2 1496.2
1402.5 1352.2 1337.2 1314.8 1279.5 1237.5 1180.5 1106.2 1044 983.2
929.2 844.5 819
489 489 488 486 483 478 473 466 459 450
441 430 418 406 393 379 364 349 333 316
299 282 264 245 227 208 190 172 154 137
121 105 91 77 65 54 59 220.5 370.5 510.8
606 696 793.5 891 979.5 1047.8 1096.5 1151.2 1228.5 1320.8
1422.8 1488 1527 1574.2 1606.5 1622.2 1635 1635.8 1602 1510.5
1432.5 1382.2 1348.5 1305.8 1260 1209.8 1151.2 1089 1032.8 975
908.2 840.8 819
489 489 488 486 483 478 473 466 459 450
441 430 418 406 393 379 364 349 333 316
299 282 264 245 227 208 190 172 154 137
121 105 91 77 65 54 75 235.5 520.5 632.2
691.5 748.5 815.2 885 939.8 1014 1092.8 1184.2 1269.8 1324.5
1354.5 1368 1389.8 1431.8 1442.2 1403.2 1393.5 1377 1361.2 1356
1373.2 1362.8 1357.5 1305.8 1263 1209 1150.5 1101.8 1050 991.5
927 868.5 819
489 489 488 486 483 478 473 466 459 450
441 430 418 406 393 379 364 349 333 316
299 282 264 245 227 208 190 172 154 137
121 105 91 77 65 54 75 224.2 432 558
616.5 657.8 705.8 825.8 967.5 1067.2 1131.8 1172.2 1219.5 1281
1344 1396.5 1455 1506.8 1538.2 1570.5 1576.5 1551 1503 1446.8
1414.5 1393.5 1371 1340.2 1305.8 1252.5 1196.2 1141.5 1083.8 1010.2
932.2 867.8 819
489 489 488 486 483 478 473 466 459 450
441 430 418 406 393 379 364 349 333 316
299 282 264 245 227 208 190 172 154 137
121 105 91 77 65 54 120 240.8 438.8 550.5
590.2 650.2 757.5 885 985.5 1041 1077.8 1122 1189.5 1282.5
1357.5 1412.2 1458.8 1486.5 1500 1498.5 1488.8 1474.5 1455.8 1427.2
1404 1409.2 1400.2 1371 1330.5 1281 1226.2 1169.2 1107.8 1029.8
945.8 874.5 819
489 489 488 486 483 478 473 466 459 450
441 430 418 406 393 379 364 349 333 316
299 282 264 245 227 208 190 172 154 137
121 105 91 77 65 54 96 262.5 486.8 563.2
606.8 671.2 755.2 846 924 988.5 1032.8 1072.5 1150.5 1235.2
1299 1334.2 1356.8 1374.8 1383.8 1389 1399.5 1410 1415.2 1412.2
1423.5 1443 1437.8 1407.8 1358.2 1306.5 1246.5 1185 1112.2 1033.5
954 880.5 819
489 489 488 486 483 478 473 466 459 450
441 430 418 406 393 379 364 349 333 316
299 282 264 245 227 208 190 172 154 137
121 105 91 77 65 54 44 201 423 525
573.8 614.2 665.2 750.8 845.2 927.8 999 1065 1125.8 1173
1212 1248 1276.5 1301.2 1322.2 1338 1347 1355.2 1347 1369.5
1383.8 1404.8 1401.8 1376.2 1341 1279.5 1209 1146.8 1077.8 1007.2
936 868.5 819
489 489 488 486 483 478 473 466 459 450
441 430 418 406 393 379 364 349 333 316
299 282 264 245 227 208 190 172 154 137
121 105 91 77 65 54 73 279 463.5 534.8
579 645 711 807.8 909.8 979.5 1057.5 1137.8 1218.8 1301.2
1385.2 1456.5 1494.8 1504.5 1513.5 1507.5 1512.8 1512.8 1494 1467
1434.8 1392 1358.2 1332 1304.2 1261.5 1184.2 1119 1061.2 999.8
935.2 851.2 819
489 489 488 486 483 478 473 466 459 450
441 430 418 406 393 379 364 349 333 316
299 282 264 245 227 208 190 172 154 137
121 105 91 77 65 54 59 184.5 390.8 526.5
573.8 625.5 698.2 831.8 959.2 1047.8 1113 1176.8 1251 1335.8
1433.2 1508.2 1557.8 1606.5 1644 1659 1648.5 1608.8 1556.2 1496.2
1402.5 1352.2 1337.2 1314.8 1279.5 1237.5 1180.5 1106.2 1044 983.2
929.2 844.5 819
489 489 488 486 483 478 473 466 459 450
441 430 418 406 393 379 364 349 333 316
299 282 264 245 227 208 190 172 154 137
121 105 91 77 65 54 59 220.5 370.5 510.8
606 696 793.5 891 979.5 1047.8 1096.5 1151.2 1228.5 1320.8
1422.8 1488 1527 1574.2 1606.5 1622.2 1635 1635.8 1602 1510.5
1432.5 1382.2 1348.5 1305.8 1260 1209.8 1151.2 1089 1032.8 975
908.2 840.8 819
489 489 488 486 483 478 473 466 459 450
441 430 418 406 393 379 364 349 333 316
299 282 264 245 227 208 190 172 154 137
121 105 91 77 65 54 75 235.5 520.5 632.2
691.5 748.5 815.2 885 939.8 1014 1092.8 1184.2 1269.8 1324.5
1354.5 1368 1389.8 1431.8 1442.2 1403.2 1393.5 1377 1361.2 1356
1373.2 1362.8 1357.5 1305.8 1263 1209 1150.5 1101.8 1050 991.5
927 868.5 819
489 489 488 486 483 478 473 466 459 450
441 430 418 406 393 379 364 349 333 316
299 282 264 245 227 208 190 172 154 137
121 105 91 77 65 54 75 224.2 432 558
616.5 657.8 705.8 825.8 967.5 1067.2 1131.8 1172.2 1219.5 1281
1344 1396.5 1455 1506.8 1538.2 1570.5 1576.5 1551 1503 1446.8
1414.5 1393.5 1371 1340.2 1305.8 1252.5 1196.2 1141.5 1083.8 1010.2
932.2 867.8 819
489 489 488 486 483 478 473 466 459 450
441 430 418 406 393 379 364 349 333 316
299 282 264 245 227 208 190 172 154 137
121 105 91 77 65 54 120 240.8 438.8 550.5
590.2 650.2 757.5 885 985.5 1041 1077.8 1122 1189.5 1282.5
1357.5 1412.2 1458.8 1486.5 1500 1498.5 1488.8 1474.5 1455.8 1427.2
1404 1409.2 1400.2 1371 1330.5 1281 1226.2 1169.2 1107.8 1029.8
945.8 874.5 819
489 489 488 486 483 478 473 466 459 450
441 430 418 406 393 379 364 349 333 316
299 282 264 245 227 208 190 172 154 137
121 105 91 77 65 54 96 262.5 486.8 563.2
606.8 671.2 755.2 846 924 988.5 1032.8 1072.5 1150.5 1235.2
1299 1334.2 1356.8 1374.8 1383.8 1389 1399.5 1410 1415.2 1412.2
1423.5 1443 1437.8 1407.8 1358.2 1306.5 1246.5 1185 1112.2 1033.5
954 880.5 819
489 489 488 486 483 478 473 466 459 450
441 430 418 406 393 379 364 349 333 316
299 282 264 245 227 208 190 172 154 137
121 105 91 77 65 54 44 201 423 525
573.8 614.2 665.2 750.8 845.2 927.8 999 1065 1125.8 1173
1212 1248 1276.5 1301.2 1322.2 1338 1347 1355.2 1347 1369.5
1383.8 1404.8 1401.8 1376.2 1341 1279.5 1209 1146.8 1077.8 1007.2
936 868.5 819
