IESNA:LM-63-2002
[TEST]253P255
[TESTLAB]METALUX LABORATORIES
[ISSUEDATE]05/12/08
[MANUFAC]COOPER LIGHTING - SHAPER
[LUMCAT]1215-XX-44-CFL/8/27-T5C/1/40
[LUMINAIRE]SHAPER 44 INCH 1215 SERIES DIRECT/INDIRECT INDOOR PENDANT FIXTURE
[MORE]WITH SHALLOW BOWL
[LAMP]EIGHT 24 WATT BIAX COMPACT FLUORESCENT LAMPS AND ONE 40 WATT T5 CIRCLINE
[MORE](8)F24BX - 1800 LUMENS AND (1)TL5C40W/830 - 3300 LUMENS
[OTHER]THIS FILE WAS PRORATED FROM TEST NO: 253P255
TILT=NONE
1 17700 1 73 17 1 1 -3.666667 -3.666667 0.6875
1 1 232
0 2.5 5 7.5 10 12.5 15 17.5 20 22.5
25 27.5 30 32.5 35 37.5 40 42.5 45 47.5
50 52.5 55 57.5 60 62.5 65 67.5 70 72.5
75 77.5 80 82.5 85 87.5 90 92.5 95 97.5
100 102.5 105 107.5 110 112.5 115 117.5 120 122.5
125 127.5 130 132.5 135 137.5 140 142.5 145 147.5
150 152.5 155 157.5 160 162.5 165 167.5 170 172.5
175 177.5 180
0 22.5 45 67.5 90 112.5 135 157.5 180 202.5
225 247.5 270 292.5 315 337.5 360
388 388 388 386 383 380 376 371 365 358
351 342 333 324 314 303 291 279 267 254
241 227 213 198 184 170 156 142 129 116
103 91 80 69 59 50 19 230.3 586.3 870.9
1070.3 1254.9 1433.1 1608 1778.9 1936 2176.6 2458.9 2679.4 2891.4
3056.6 3181.1 3209.7 3196.6 3258.9 3349.7 3450.3 3532.6 3569.7 3561.7
3546.3 3498.9 3381.7 3181.7 2962.9 2730.3 2504.6 2304.6 2126.9 1959.4
1826.3 1740.6 1705.1
388 388 388 386 383 380 376 371 365 358
351 342 333 324 314 303 291 279 267 254
241 227 213 198 184 170 156 142 129 116
103 91 80 69 59 50 17 126.9 413.7 726.3
1074.9 1403.4 1636 1842.3 2034.3 2202.3 2449.1 2700 2942.3 3157.1
3304 3359.4 3329.1 3354.3 3424.6 3503.4 3568.6 3589.7 3576 3550.9
3516 3419.4 3237.1 3022.9 2798.3 2580.6 2382.9 2208 2049.7 1908
1793.7 1724.6 1705.1
388 388 388 386 383 380 376 371 365 358
351 342 333 324 314 303 291 279 267 254
241 227 213 198 184 170 156 142 129 116
103 91 80 69 59 50 17 102.9 356 632
930.9 1192.6 1414.9 1694.3 2073.1 2386.3 2644 2857.7 2965.7 2986.9
3050.3 3172 3328 3465.7 3555.4 3630.9 3678.3 3702.3 3660.6 3549.7
3374.9 3172.6 2965.1 2754.9 2556.6 2371.4 2205.1 2045.7 1912 1812
1746.9 1711.4 1705.1
388 388 388 386 383 380 376 371 365 358
351 342 333 324 314 303 291 279 267 254
241 227 213 198 184 170 156 142 129 116
103 91 80 69 59 50 23 134.3 352 580.6
797.7 1059.4 1297.1 1489.7 1610.3 1762.9 2027.4 2275.4 2447.4 2614.3
2732.6 2796 2828 2860 2855.4 2851.4 2840 2806.9 2776 2740
2677.7 2586.9 2470.9 2342.3 2217.7 2086.3 1968.6 1866.9 1783.4 1730.9
1709.7 1707.4 1705.1
388 388 388 386 383 380 376 371 365 358
351 342 333 324 314 303 291 279 267 254
241 227 213 198 184 170 156 142 129 116
103 91 80 69 59 50 24 50.9 125.1 215.4
318.9 428.6 541.7 650.3 747.4 831.4 964 1121.7 1230.9 1352.6
1449.7 1551.4 1615.4 1666.3 1752 1832.6 1912.6 1990.3 2045.7 2090.3
2128.6 2128 2100 2040.6 1977.7 1907.4 1834.3 1766.3 1714.3 1681.1
1674.9 1692.6 1705.1
388 388 388 386 383 380 376 371 365 358
351 342 333 324 314 303 291 279 267 254
241 227 213 198 184 170 156 142 129 116
103 91 80 69 59 50 25 108.6 282.3 452.6
657.7 897.1 1093.7 1254.3 1410.9 1601.7 1813.1 2015.4 2209.7 2379.4
2501.7 2561.7 2547.4 2554.9 2567.4 2565.7 2560.6 2540 2506.9 2478.9
2435.4 2352 2245.7 2129.1 2018.3 1914.9 1821.1 1745.1 1692.6 1667.4
1663.4 1683.4 1705.1
388 388 388 386 383 380 376 371 365 358
351 342 333 324 314 303 291 279 267 254
241 227 213 198 184 170 156 142 129 116
103 91 80 69 59 50 26 125.7 333.7 545.7
772 977.1 1141.7 1352 1648.6 1946.9 2226.3 2450.3 2578.3 2661.1
2795.4 2958.9 3148 3315.4 3424.6 3511.4 3576 3593.1 3530.9 3393.1
3205.7 3000.6 2788.6 2565.7 2357.1 2166.3 2001.1 1850.9 1743.4 1685.1
1670.9 1681.1 1705.1
388 388 388 386 383 380 376 371 365 358
351 342 333 324 314 303 291 279 267 254
241 227 213 198 184 170 156 142 129 116
103 91 80 69 59 50 28 128.6 352 589.7
817.7 1046.3 1266.3 1466.9 1616 1825.1 2107.4 2394.3 2646.9 2882.3
3057.1 3122.9 3153.1 3257.7 3335.4 3435.4 3518.9 3549.1 3549.7 3538.3
3474.3 3341.7 3133.7 2900.6 2670.3 2428 2212.6 2027.4 1870.3 1764.6
1719.4 1712 1705.1
388 388 388 386 383 380 376 371 365 358
351 342 333 324 314 303 291 279 267 254
241 227 213 198 184 170 156 142 129 116
103 91 80 69 59 50 17 140 372.6 580.6
756 936 1115.4 1294.3 1455.4 1594.3 1845.7 2156 2362.9 2584.6
2756 2910.3 2962.3 2974.3 3080.6 3193.7 3317.1 3424 3479.4 3498.3
3506.3 3444.6 3309.1 3088 2852 2604.6 2358.9 2138.3 1955.4 1808
1724.6 1703.4 1705.1
388 388 388 386 383 380 376 371 365 358
351 342 333 324 314 303 291 279 267 254
241 227 213 198 184 170 156 142 129 116
103 91 80 69 59 50 14 114.3 364 634.3
923.4 1221.1 1453.7 1662.3 1812.6 1973.7 2230.3 2500.6 2762.9 2989.1
3173.1 3264 3251.4 3318.9 3425.7 3525.7 3620 3669.7 3679.4 3681.7
3650.3 3532.6 3334.3 3099.4 2852.6 2601.1 2362.3 2149.1 1966.9 1827.4
1742.3 1716 1705.1
388 388 388 386 383 380 376 371 365 358
351 342 333 324 314 303 291 279 267 254
241 227 213 198 184 170 156 142 129 116
103 91 80 69 59 50 12 125.1 382.3 650.9
932 1181.1 1400.6 1641.7 1986.9 2298.9 2577.7 2812.6 2949.1 2966.3
3036 3171.4 3333.7 3481.7 3588 3654.9 3702.3 3742.3 3699.4 3586.3
3412 3211.4 3007.4 2793.1 2588 2394.3 2224.6 2062.3 1927.4 1825.7
1760 1726.3 1705.1
388 388 388 386 383 380 376 371 365 358
351 342 333 324 314 303 291 279 267 254
241 227 213 198 184 170 156 142 129 116
103 91 80 69 59 50 19 152.6 412 682.9
916.6 1174.9 1412.6 1617.1 1768.6 1950.3 2206.3 2454.3 2617.1 2782.3
2898.9 2953.7 2956 2941.7 2918.9 2897.1 2864 2813.7 2745.7 2673.1
2604.6 2526.3 2425.1 2318.9 2215.4 2113.7 2029.1 1956 1892.6 1834.9
1781.7 1737.7 1705.1
388 388 388 386 383 380 376 371 365 358
351 342 333 324 314 303 291 279 267 254
241 227 213 198 184 170 156 142 129 116
103 91 80 69 59 50 12 118.3 305.7 458.9
574.9 685.7 795.4 902.3 1014.9 1124 1251.4 1385.7 1512 1626.3
1725.1 1801.7 1846.9 1874.9 1920 1980.6 2042.3 2097.7 2137.1 2157.1
2174.3 2190.3 2182.9 2144.6 2100 2046.9 1994.9 1948.6 1901.7 1849.7
1796 1750.3 1705.1
388 388 388 386 383 380 376 371 365 358
351 342 333 324 314 303 291 279 267 254
241 227 213 198 184 170 156 142 129 116
103 91 80 69 59 50 12 139.4 428 712.6
1017.1 1340 1565.1 1744 1905.7 2071.4 2277.7 2482.3 2663.4 2797.7
2890.9 2931.4 2904 2877.1 2861.1 2850.9 2831.4 2794.9 2747.4 2702.3
2661.1 2604.6 2515.4 2413.7 2308 2206.3 2114.9 2032.6 1954.9 1877.1
1804 1749.1 1705.1
388 388 388 386 383 380 376 371 365 358
351 342 333 324 314 303 291 279 267 254
241 227 213 198 184 170 156 142 129 116
103 91 80 69 59 50 13 169.7 496 806.9
1122.9 1385.1 1613.1 1904 2275.4 2590.9 2856 3058.9 3138.9 3157.1
3216.6 3317.1 3456.6 3579.4 3660.6 3703.4 3722.3 3732.6 3705.7 3587.4
3426.9 3246.3 3056 2860 2681.1 2517.1 2360 2198.9 2049.1 1922.9
1818.9 1742.9 1705.1
388 388 388 386 383 380 376 371 365 358
351 342 333 324 314 303 291 279 267 254
241 227 213 198 184 170 156 142 129 116
103 91 80 69 59 50 26 201.7 545.7 892
1202.9 1473.7 1715.4 1924.6 2106.9 2306.3 2607.4 2885.1 3111.4 3309.7
3437.1 3474.9 3478.9 3537.1 3596.6 3680 3746.3 3772 3758.3 3732
3686.9 3581.7 3389.7 3174.3 2949.1 2711.4 2498.3 2305.1 2122.3 1961.1
1838.3 1752.6 1705.1
388 388 388 386 383 380 376 371 365 358
351 342 333 324 314 303 291 279 267 254
241 227 213 198 184 170 156 142 129 116
103 91 80 69 59 50 19 230.3 586.3 870.9
1070.3 1254.9 1433.1 1608 1778.9 1936 2176.6 2458.9 2679.4 2891.4
3056.6 3181.1 3209.7 3196.6 3258.9 3349.7 3450.3 3532.6 3569.7 3561.7
3546.3 3498.9 3381.7 3181.7 2962.9 2730.3 2504.6 2304.6 2126.9 1959.4
1826.3 1740.6 1705.1
