IESNA:LM-63-2002
[TEST]253P175
[TESTLAB]METALUX LABORITORIES
[ISSUEDATE]08/01/07
[MANUFAC]COOPER LIGHTING - SHAPER
[LUMCAT]1215-XX-26-CFL/6/27-T5C/1/22
[LUMINAIRE]SHAPER 26 INCH 1215 SERIES DIRECT/INDIRECT INDOOR PENDANT FIXTURE 
[MORE]WITH SHALLOW DIFFUSING BOWL
[LAMP]ONE - TL5C22 @ 1800 LUMENS AND SIX - FT24DL - 1800 LUMENS 
[MORE]ONE 22W T5 CIRCLINE AND SIX 24W GX10 T4 COMPACT FLUORESCENT LAMPS
TILT=NONE
7 1800 1 73 25 1 1 -2.166667 -2.166667 0.000000 
1.000 1 24
0 2.5 5 7.5 10 12.5 15 17.5 20 22.5 25 27.5 30 32.5 35 37.5 40 42.5 45 47.5 50
52.5 55 57.5 60 62.5 65 67.5 70 72.5 75 77.5 80 82.5 85 87.5 90 92.5 95 97.5 100 102.5
105 107.5 110 112.5 115 117.5 120 122.5 125 127.5 130 132.5 135 137.5 140 142.5 145
147.5 150 152.5 155 157.5 160 162.5 165 167.5 170 172.5 175 177.5 180
0 20 30 40 60 80 90 100 120 140 150 160 180 200 210 220 240 260 270 280 300 320 330
340 360
264 264 263 262 260 257 254 251 246 242 236 230 224 217 210 203 195 187 178 169 160
150 141 131 121 112 102 93 84 75 67 59 51 44 38 32 5 29 110 239 386 570 747 910 1058
1211 1360 1493 1614 1748 1872 1984 2105 2206 2290 2356 2418 2488 2579 2660 2730 2789
2829 2855 2867 2847 2784 2712 2599 2459 2332 2225 2166
264 264 263 262 260 257 254 251 246 242 236 230 224 217 210 203 195 187 178 169 160
150 141 131 121 112 102 93 84 75 67 59 51 44 38 32 3 20 81 179 292 416 562 717 855
992 1115 1251 1389 1557 1715 1879 2034 2175 2285 2374 2440 2493 2542 2579 2611 2640
2683 2715 2734 2725 2704 2666 2561 2436 2322 2220 2166
264 264 263 262 260 257 254 251 246 242 236 230 224 217 210 203 195 187 178 169 160
150 141 131 121 112 102 93 84 75 67 59 51 44 38 32 3 16 56 133 219 313 426 569 714
854 991 1133 1295 1454 1631 1786 1918 2035 2152 2263 2358 2424 2480 2525 2563 2588
2607 2652 2680 2679 2667 2623 2537 2421 2313 2217 2166
264 264 263 262 260 257 254 251 246 242 236 230 224 217 210 203 195 187 178 169 160
150 141 131 121 112 102 93 84 75 67 59 51 44 38 32 7 23 72 155 255 367 490 635 798
962 1135 1314 1490 1676 1840 1995 2117 2229 2330 2433 2526 2596 2637 2671 2687 2696
2701 2702 2707 2701 2669 2603 2525 2415 2307 2210 2166
264 264 263 262 260 257 254 251 246 242 236 230 224 217 210 203 195 187 178 169 160
150 141 131 121 112 102 93 84 75 67 59 51 44 38 32 6 18 69 151 243 349 479 634 832
1038 1250 1443 1615 1777 1942 2094 2231 2354 2475 2585 2690 2776 2835 2869 2885 2894
2885 2841 2794 2738 2673 2599 2526 2418 2305 2207 2166
264 264 263 262 260 257 254 251 246 242 236 230 224 217 210 203 195 187 178 169 160
150 141 131 121 112 102 93 84 75 67 59 51 44 38 32 4 16 65 154 261 377 505 660 830
995 1151 1325 1486 1659 1819 1965 2093 2207 2307 2405 2488 2552 2589 2625 2645 2654
2660 2661 2678 2675 2658 2600 2523 2413 2307 2211 2166
264 264 263 262 260 257 254 251 246 242 236 230 224 217 210 203 195 187 178 169 160
150 141 131 121 112 102 93 84 75 67 59 51 44 38 32 4 17 68 150 252 359 483 645 808
953 1097 1230 1375 1528 1686 1850 1989 2107 2215 2313 2394 2449 2499 2544 2580 2604
2619 2657 2680 2683 2672 2633 2545 2427 2317 2216 2166
264 264 263 262 260 257 254 251 246 242 236 230 224 217 210 203 195 187 178 169 160
150 141 131 121 112 102 93 84 75 67 59 51 44 38 32 5 27 97 206 333 478 649 824 978
1125 1247 1369 1493 1646 1804 1961 2109 2237 2338 2418 2485 2538 2581 2620 2649 2681
2720 2741 2752 2747 2720 2678 2571 2443 2323 2221 2166
264 264 263 262 260 257 254 251 246 242 236 230 224 217 210 203 195 187 178 169 160
150 141 131 121 112 102 93 84 75 67 59 51 44 38 32 5 29 110 239 386 570 747 910 1058
1211 1360 1493 1614 1748 1872 1984 2105 2206 2290 2356 2418 2488 2579 2660 2730 2789
2829 2855 2867 2847 2784 2712 2599 2459 2332 2225 2166
264 264 263 262 260 257 254 251 246 242 236 230 224 217 210 203 195 187 178 169 160
150 141 131 121 112 102 93 84 75 67 59 51 44 38 32 3 20 81 179 292 416 562 717 855
992 1115 1251 1389 1557 1715 1879 2034 2175 2285 2374 2440 2493 2542 2579 2611 2640
2683 2715 2734 2725 2704 2666 2561 2436 2322 2220 2166
264 264 263 262 260 257 254 251 246 242 236 230 224 217 210 203 195 187 178 169 160
150 141 131 121 112 102 93 84 75 67 59 51 44 38 32 3 16 56 133 219 313 426 569 714
854 991 1133 1295 1454 1631 1786 1918 2035 2152 2263 2358 2424 2480 2525 2563 2588
2607 2652 2680 2679 2667 2623 2537 2421 2313 2217 2166
264 264 263 262 260 257 254 251 246 242 236 230 224 217 210 203 195 187 178 169 160
150 141 131 121 112 102 93 84 75 67 59 51 44 38 32 7 23 72 155 255 367 490 635 798
962 1135 1314 1490 1676 1840 1995 2117 2229 2330 2433 2526 2596 2637 2671 2687 2696
2701 2702 2707 2701 2669 2603 2525 2415 2307 2210 2166
264 264 263 262 260 257 254 251 246 242 236 230 224 217 210 203 195 187 178 169 160
150 141 131 121 112 102 93 84 75 67 59 51 44 38 32 6 18 69 151 243 349 479 634 832
1038 1250 1443 1615 1777 1942 2094 2231 2354 2475 2585 2690 2776 2835 2869 2885 2894
2885 2841 2794 2738 2673 2599 2526 2418 2305 2207 2166
264 264 263 262 260 257 254 251 246 242 236 230 224 217 210 203 195 187 178 169 160
150 141 131 121 112 102 93 84 75 67 59 51 44 38 32 4 16 65 154 261 377 505 660 830
995 1151 1325 1486 1659 1819 1965 2093 2207 2307 2405 2488 2552 2589 2625 2645 2654
2660 2661 2678 2675 2658 2600 2523 2413 2307 2211 2166
264 264 263 262 260 257 254 251 246 242 236 230 224 217 210 203 195 187 178 169 160
150 141 131 121 112 102 93 84 75 67 59 51 44 38 32 4 17 68 150 252 359 483 645 808
953 1097 1230 1375 1528 1686 1850 1989 2107 2215 2313 2394 2449 2499 2544 2580 2604
2619 2657 2680 2683 2672 2633 2545 2427 2317 2216 2166
264 264 263 262 260 257 254 251 246 242 236 230 224 217 210 203 195 187 178 169 160
150 141 131 121 112 102 93 84 75 67 59 51 44 38 32 5 27 97 206 333 478 649 824 978
1125 1247 1369 1493 1646 1804 1961 2109 2237 2338 2418 2485 2538 2581 2620 2649 2681
2720 2741 2752 2747 2720 2678 2571 2443 2323 2221 2166
264 264 263 262 260 257 254 251 246 242 236 230 224 217 210 203 195 187 178 169 160
150 141 131 121 112 102 93 84 75 67 59 51 44 38 32 5 29 110 239 386 570 747 910 1058
1211 1360 1493 1614 1748 1872 1984 2105 2206 2290 2356 2418 2488 2579 2660 2730 2789
2829 2855 2867 2847 2784 2712 2599 2459 2332 2225 2166
264 264 263 262 260 257 254 251 246 242 236 230 224 217 210 203 195 187 178 169 160
150 141 131 121 112 102 93 84 75 67 59 51 44 38 32 3 20 81 179 292 416 562 717 855
992 1115 1251 1389 1557 1715 1879 2034 2175 2285 2374 2440 2493 2542 2579 2611 2640
2683 2715 2734 2725 2704 2666 2561 2436 2322 2220 2166
264 264 263 262 260 257 254 251 246 242 236 230 224 217 210 203 195 187 178 169 160
150 141 131 121 112 102 93 84 75 67 59 51 44 38 32 3 16 56 133 219 313 426 569 714
854 991 1133 1295 1454 1631 1786 1918 2035 2152 2263 2358 2424 2480 2525 2563 2588
2607 2652 2680 2679 2667 2623 2537 2421 2313 2217 2166
264 264 263 262 260 257 254 251 246 242 236 230 224 217 210 203 195 187 178 169 160
150 141 131 121 112 102 93 84 75 67 59 51 44 38 32 7 23 72 155 255 367 490 635 798
962 1135 1314 1490 1676 1840 1995 2117 2229 2330 2433 2526 2596 2637 2671 2687 2696
2701 2702 2707 2701 2669 2603 2525 2415 2307 2210 2166
264 264 263 262 260 257 254 251 246 242 236 230 224 217 210 203 195 187 178 169 160
150 141 131 121 112 102 93 84 75 67 59 51 44 38 32 6 18 69 151 243 349 479 634 832
1038 1250 1443 1615 1777 1942 2094 2231 2354 2475 2585 2690 2776 2835 2869 2885 2894
2885 2841 2794 2738 2673 2599 2526 2418 2305 2207 2166
264 264 263 262 260 257 254 251 246 242 236 230 224 217 210 203 195 187 178 169 160
150 141 131 121 112 102 93 84 75 67 59 51 44 38 32 4 16 65 154 261 377 505 660 830
995 1151 1325 1486 1659 1819 1965 2093 2207 2307 2405 2488 2552 2589 2625 2645 2654
2660 2661 2678 2675 2658 2600 2523 2413 2307 2211 2166
264 264 263 262 260 257 254 251 246 242 236 230 224 217 210 203 195 187 178 169 160
150 141 131 121 112 102 93 84 75 67 59 51 44 38 32 4 17 68 150 252 359 483 645 808
953 1097 1230 1375 1528 1686 1850 1989 2107 2215 2313 2394 2449 2499 2544 2580 2604
2619 2657 2680 2683 2672 2633 2545 2427 2317 2216 2166
264 264 263 262 260 257 254 251 246 242 236 230 224 217 210 203 195 187 178 169 160
150 141 131 121 112 102 93 84 75 67 59 51 44 38 32 5 27 97 206 333 478 649 824 978
1125 1247 1369 1493 1646 1804 1961 2109 2237 2338 2418 2485 2538 2581 2620 2649 2681
2720 2741 2752 2747 2720 2678 2571 2443 2323 2221 2166
264 264 263 262 260 257 254 251 246 242 236 230 224 217 210 203 195 187 178 169 160
150 141 131 121 112 102 93 84 75 67 59 51 44 38 32 5 29 110 239 386 570 747 910 1058
1211 1360 1493 1614 1748 1872 1984 2105 2206 2290 2356 2418 2488 2579 2660 2730 2789
2829 2855 2867 2847 2784 2712 2599 2459 2332 2225 2166
