IESNA:LM-63-2002
[TEST]253P231
[TESTLAB]METALUX LABORATORIES
[ISSUEDATE]05/12/08
[MANUFAC]COOPER LIGHTING - SHAPER
[LUMCAT]1215-XX-36-CFL/3/39-T5C/1/40
[LUMINAIRE]SHAPER 36 INCH 1215 SERIES DIRECT/INDIRECT INDOOR PENDANT FIXTURE 
[MORE]WITH SHALLOW BOWL
[LAMP]THREE 39 WATT BIAX COMPACT FLUORESCENT AND ONE 40 WATT T5 CIRCLINE
[MORE](3)F39BX - 2850 LUMENS AND (1)TL5C40W/830 - 3300 LUMENS 
[OTHER]THIS FILE WAS PRORATED FROM TEST NO: 253P231
TILT=NONE
1 11850 1 73 25 1 1 -3 -3 0.520833
1 1 157
0 2.5 5 7.5 10 12.5 15 17.5 20 22.5
25 27.5 30 32.5 35 37.5 40 42.5 45 47.5
50 52.5 55 57.5 60 62.5 65 67.5 70 72.5
75 77.5 80 82.5 85 87.5 90 92.5 95 97.5
100 102.5 105 107.5 110 112.5 115 117.5 120 122.5
125 127.5 130 132.5 135 137.5 140 142.5 145 147.5
150 152.5 155 157.5 160 162.5 165 167.5 170 172.5
175 177.5 180
0 20 30 40 60 80 90 100 120 140
150 160 180 200 210 220 240 260 270 280
300 320 330 340 360
489 489 488 486 483 478 473 466 459 450
441 430 418 406 393 379 364 349 333 316
299 282 264 245 227 208 190 172 154 137
121 105 91 77 65 54 3 91.4 268.7 476.8
680.4 880.3 1164.4 1378.9 1498.3 1546.2 1592.4 1691 1749.8 1801.4
1871 1986.9 2062 2050.2 1991.4 1934.4 1862 1775.1 1659.3 1523.6
1399.7 1280.2 1174.4 1078.5 991.6 913.8 844.1 779 719.3 665.9
628.8 610.7 605.3
489 489 488 486 483 478 473 466 459 450
441 430 418 406 393 379 364 349 333 316
299 282 264 245 227 208 190 172 154 137
121 105 91 77 65 54 6 93.2 248.8 425.2
532.9 657.8 855 1060.4 1226.9 1378.9 1510 1603.2 1669.3 1701
1767.9 1817.7 1805.9 1773.3 1745.3 1744.4 1748.9 1727.2 1659.3 1571.6
1465.7 1356.2 1230.5 1102.9 988 903.9 839.6 778.1 722 672.2
645.1 627.9 605.3
489 489 488 486 483 478 473 466 459 450
441 430 418 406 393 379 364 349 333 316
299 282 264 245 227 208 190 172 154 137
121 105 91 77 65 54 5 88.7 237 391.8
485.9 608 748.2 930.1 1075.8 1238.6 1421.4 1565.2 1665.7 1739.9
1768.8 1758 1764.3 1768.8 1750.7 1707.3 1671.1 1649.4 1635.8 1579.7
1479.3 1358 1246.8 1131 1013.3 911.1 836 776.3 720.2 667.7
628.8 616.1 605.3
489 489 488 486 483 478 473 466 459 450
441 430 418 406 393 379 364 349 333 316
299 282 264 245 227 208 190 172 154 137
121 105 91 77 65 54 8 109.5 263.3 423.4
569.1 712 839.6 1001.6 1180.7 1323.7 1511.9 1682.9 1817.7 1865.6
1862 1830.3 1831.2 1830.3 1802.3 1739 1663.9 1621.3 1601.4 1563.4
1483.8 1370.7 1258.5 1152.7 1037.8 923.8 834.2 773.6 717.5 666.8
628.8 608.9 605.3
489 489 488 486 483 478 473 466 459 450
441 430 418 406 393 379 364 349 333 316
299 282 264 245 227 208 190 172 154 137
121 105 91 77 65 54 13 105.9 282.3 460.5
665.9 838.7 982.6 1139.1 1365.3 1541.7 1704.6 1878.3 1995.9 2036.6
2035.7 2012.2 1966 1935.3 1889.1 1803.2 1707.3 1607.8 1559.8 1538.1
1493.8 1405.1 1292.9 1184.3 1068.5 942.8 836.9 765.4 709.3 663.2
630.6 608.9 605.3
489 489 488 486 483 478 473 466 459 450
441 430 418 406 393 379 364 349 333 316
299 282 264 245 227 208 190 172 154 137
121 105 91 77 65 54 4 63.3 215.3 398.1
532 701.2 836 994.3 1192.5 1380.7 1586 1725.4 1837.6 1899.1
1900 1852 1853.9 1853.9 1825.8 1764.3 1686.5 1645.8 1622.2 1580.6
1495.6 1378.9 1264.9 1154.5 1037.8 922 836 774.5 718.4 668.6
628.8 608.9 605.3
489 489 488 486 483 478 473 466 459 450
441 430 418 406 393 379 364 349 333 316
299 282 264 245 227 208 190 172 154 137
121 105 91 77 65 54 2 49.8 201.8 377.3
501.2 641.5 775.4 1012.4 1193.4 1353.5 1517.3 1645.8 1734.4 1807.7
1827.6 1832.1 1821.3 1802.3 1780.6 1727.2 1695.5 1682.9 1663.9 1601.4
1492 1368.9 1253.1 1128.2 1006.1 904.8 833.3 773.6 717.5 664.1
626.1 607.1 605.3
489 489 488 486 483 478 473 466 459 450
441 430 418 406 393 379 364 349 333 316
299 282 264 245 227 208 190 172 154 137
121 105 91 77 65 54 5 56.1 208.1 401.7
545.6 668.6 914.7 1155.4 1330.9 1482 1588.8 1689.2 1755.2 1771.5
1838.5 1876.5 1858.4 1808.6 1769.7 1778.8 1784.2 1758.9 1685.6 1590.6
1481.1 1361.7 1227.8 1096.6 982.6 900.2 836 774.5 718.4 666.8
627.9 608 605.3
489 489 488 486 483 478 473 466 459 450
441 430 418 406 393 379 364 349 333 316
299 282 264 245 227 208 190 172 154 137
121 105 91 77 65 54 3 91.4 268.7 476.8
680.4 880.3 1164.4 1378.9 1498.3 1546.2 1592.4 1691 1749.8 1801.4
1871 1986.9 2062 2050.2 1991.4 1934.4 1862 1775.1 1659.3 1523.6
1399.7 1280.2 1174.4 1078.5 991.6 913.8 844.1 779 719.3 665.9
628.8 610.7 605.3
489 489 488 486 483 478 473 466 459 450
441 430 418 406 393 379 364 349 333 316
299 282 264 245 227 208 190 172 154 137
121 105 91 77 65 54 6 93.2 248.8 425.2
532.9 657.8 855 1060.4 1226.9 1378.9 1510 1603.2 1669.3 1701
1767.9 1817.7 1805.9 1773.3 1745.3 1744.4 1748.9 1727.2 1659.3 1571.6
1465.7 1356.2 1230.5 1102.9 988 903.9 839.6 778.1 722 672.2
645.1 627.9 605.3
489 489 488 486 483 478 473 466 459 450
441 430 418 406 393 379 364 349 333 316
299 282 264 245 227 208 190 172 154 137
121 105 91 77 65 54 5 88.7 237 391.8
485.9 608 748.2 930.1 1075.8 1238.6 1421.4 1565.2 1665.7 1739.9
1768.8 1758 1764.3 1768.8 1750.7 1707.3 1671.1 1649.4 1635.8 1579.7
1479.3 1358 1246.8 1131 1013.3 911.1 836 776.3 720.2 667.7
628.8 616.1 605.3
489 489 488 486 483 478 473 466 459 450
441 430 418 406 393 379 364 349 333 316
299 282 264 245 227 208 190 172 154 137
121 105 91 77 65 54 8 109.5 263.3 423.4
569.1 712 839.6 1001.6 1180.7 1323.7 1511.9 1682.9 1817.7 1865.6
1862 1830.3 1831.2 1830.3 1802.3 1739 1663.9 1621.3 1601.4 1563.4
1483.8 1370.7 1258.5 1152.7 1037.8 923.8 834.2 773.6 717.5 666.8
628.8 608.9 605.3
489 489 488 486 483 478 473 466 459 450
441 430 418 406 393 379 364 349 333 316
299 282 264 245 227 208 190 172 154 137
121 105 91 77 65 54 13 105.9 282.3 460.5
665.9 838.7 982.6 1139.1 1365.3 1541.7 1704.6 1878.3 1995.9 2036.6
2035.7 2012.2 1966 1935.3 1889.1 1803.2 1707.3 1607.8 1559.8 1538.1
1493.8 1405.1 1292.9 1184.3 1068.5 942.8 836.9 765.4 709.3 663.2
630.6 608.9 605.3
489 489 488 486 483 478 473 466 459 450
441 430 418 406 393 379 364 349 333 316
299 282 264 245 227 208 190 172 154 137
121 105 91 77 65 54 4 63.3 215.3 398.1
532 701.2 836 994.3 1192.5 1380.7 1586 1725.4 1837.6 1899.1
1900 1852 1853.9 1853.9 1825.8 1764.3 1686.5 1645.8 1622.2 1580.6
1495.6 1378.9 1264.9 1154.5 1037.8 922 836 774.5 718.4 668.6
628.8 608.9 605.3
489 489 488 486 483 478 473 466 459 450
441 430 418 406 393 379 364 349 333 316
299 282 264 245 227 208 190 172 154 137
121 105 91 77 65 54 2 49.8 201.8 377.3
501.2 641.5 775.4 1012.4 1193.4 1353.5 1517.3 1645.8 1734.4 1807.7
1827.6 1832.1 1821.3 1802.3 1780.6 1727.2 1695.5 1682.9 1663.9 1601.4
1492 1368.9 1253.1 1128.2 1006.1 904.8 833.3 773.6 717.5 664.1
626.1 607.1 605.3
489 489 488 486 483 478 473 466 459 450
441 430 418 406 393 379 364 349 333 316
299 282 264 245 227 208 190 172 154 137
121 105 91 77 65 54 5 56.1 208.1 401.7
545.6 668.6 914.7 1155.4 1330.9 1482 1588.8 1689.2 1755.2 1771.5
1838.5 1876.5 1858.4 1808.6 1769.7 1778.8 1784.2 1758.9 1685.6 1590.6
1481.1 1361.7 1227.8 1096.6 982.6 900.2 836 774.5 718.4 666.8
627.9 608 605.3
489 489 488 486 483 478 473 466 459 450
441 430 418 406 393 379 364 349 333 316
299 282 264 245 227 208 190 172 154 137
121 105 91 77 65 54 3 91.4 268.7 476.8
680.4 880.3 1164.4 1378.9 1498.3 1546.2 1592.4 1691 1749.8 1801.4
1871 1986.9 2062 2050.2 1991.4 1934.4 1862 1775.1 1659.3 1523.6
1399.7 1280.2 1174.4 1078.5 991.6 913.8 844.1 779 719.3 665.9
628.8 610.7 605.3
489 489 488 486 483 478 473 466 459 450
441 430 418 406 393 379 364 349 333 316
299 282 264 245 227 208 190 172 154 137
121 105 91 77 65 54 6 93.2 248.8 425.2
532.9 657.8 855 1060.4 1226.9 1378.9 1510 1603.2 1669.3 1701
1767.9 1817.7 1805.9 1773.3 1745.3 1744.4 1748.9 1727.2 1659.3 1571.6
1465.7 1356.2 1230.5 1102.9 988 903.9 839.6 778.1 722 672.2
645.1 627.9 605.3
489 489 488 486 483 478 473 466 459 450
441 430 418 406 393 379 364 349 333 316
299 282 264 245 227 208 190 172 154 137
121 105 91 77 65 54 5 88.7 237 391.8
485.9 608 748.2 930.1 1075.8 1238.6 1421.4 1565.2 1665.7 1739.9
1768.8 1758 1764.3 1768.8 1750.7 1707.3 1671.1 1649.4 1635.8 1579.7
1479.3 1358 1246.8 1131 1013.3 911.1 836 776.3 720.2 667.7
628.8 616.1 605.3
489 489 488 486 483 478 473 466 459 450
441 430 418 406 393 379 364 349 333 316
299 282 264 245 227 208 190 172 154 137
121 105 91 77 65 54 8 109.5 263.3 423.4
569.1 712 839.6 1001.6 1180.7 1323.7 1511.9 1682.9 1817.7 1865.6
1862 1830.3 1831.2 1830.3 1802.3 1739 1663.9 1621.3 1601.4 1563.4
1483.8 1370.7 1258.5 1152.7 1037.8 923.8 834.2 773.6 717.5 666.8
628.8 608.9 605.3
489 489 488 486 483 478 473 466 459 450
441 430 418 406 393 379 364 349 333 316
299 282 264 245 227 208 190 172 154 137
121 105 91 77 65 54 13 105.9 282.3 460.5
665.9 838.7 982.6 1139.1 1365.3 1541.7 1704.6 1878.3 1995.9 2036.6
2035.7 2012.2 1966 1935.3 1889.1 1803.2 1707.3 1607.8 1559.8 1538.1
1493.8 1405.1 1292.9 1184.3 1068.5 942.8 836.9 765.4 709.3 663.2
630.6 608.9 605.3
489 489 488 486 483 478 473 466 459 450
441 430 418 406 393 379 364 349 333 316
299 282 264 245 227 208 190 172 154 137
121 105 91 77 65 54 4 63.3 215.3 398.1
532 701.2 836 994.3 1192.5 1380.7 1586 1725.4 1837.6 1899.1
1900 1852 1853.9 1853.9 1825.8 1764.3 1686.5 1645.8 1622.2 1580.6
1495.6 1378.9 1264.9 1154.5 1037.8 922 836 774.5 718.4 668.6
628.8 608.9 605.3
489 489 488 486 483 478 473 466 459 450
441 430 418 406 393 379 364 349 333 316
299 282 264 245 227 208 190 172 154 137
121 105 91 77 65 54 2 49.8 201.8 377.3
501.2 641.5 775.4 1012.4 1193.4 1353.5 1517.3 1645.8 1734.4 1807.7
1827.6 1832.1 1821.3 1802.3 1780.6 1727.2 1695.5 1682.9 1663.9 1601.4
1492 1368.9 1253.1 1128.2 1006.1 904.8 833.3 773.6 717.5 664.1
626.1 607.1 605.3
489 489 488 486 483 478 473 466 459 450
441 430 418 406 393 379 364 349 333 316
299 282 264 245 227 208 190 172 154 137
121 105 91 77 65 54 5 56.1 208.1 401.7
545.6 668.6 914.7 1155.4 1330.9 1482 1588.8 1689.2 1755.2 1771.5
1838.5 1876.5 1858.4 1808.6 1769.7 1778.8 1784.2 1758.9 1685.6 1590.6
1481.1 1361.7 1227.8 1096.6 982.6 900.2 836 774.5 718.4 666.8
627.9 608 605.3
489 489 488 486 483 478 473 466 459 450
441 430 418 406 393 379 364 349 333 316
299 282 264 245 227 208 190 172 154 137
121 105 91 77 65 54 3 91.4 268.7 476.8
680.4 880.3 1164.4 1378.9 1498.3 1546.2 1592.4 1691 1749.8 1801.4
1871 1986.9 2062 2050.2 1991.4 1934.4 1862 1775.1 1659.3 1523.6
1399.7 1280.2 1174.4 1078.5 991.6 913.8 844.1 779 719.3 665.9
628.8 610.7 605.3
