IESNA:LM-63-2002
[TEST]253P255
[TESTLAB]METALUX LABORATORIES
[ISSUEDATE]05/12/08
[MANUFAC]COOPER LIGHTING - SHAPER
[LUMCAT]1215-XX-44-CFL/8/39-T5C/1/40
[LUMINAIRE]SHAPER 44 INCH 1215 SERIES DIRECT/INDIRECT INDOOR PENDANT FIXTURE
[MORE]WITH SHALLOW BOWL
[LAMP]EIGHT 39 WATT BIAX COMPACT FLUORESCENT LAMPS AND ONE 40 WATT T5 CIRCLINE
[MORE](8)F39BX - 2850 LUMENS AND (1)TL5C40W/830 - 3300 LUMENS
[OTHER]THIS FILE WAS PRORATED FROM TEST NO: 253P255
TILT=NONE
1 26100 1 73 17 1 1 -3.666667 -3.666667 0.6875
1 1 352
0 2.5 5 7.5 10 12.5 15 17.5 20 22.5
25 27.5 30 32.5 35 37.5 40 42.5 45 47.5
50 52.5 55 57.5 60 62.5 65 67.5 70 72.5
75 77.5 80 82.5 85 87.5 90 92.5 95 97.5
100 102.5 105 107.5 110 112.5 115 117.5 120 122.5
125 127.5 130 132.5 135 137.5 140 142.5 145 147.5
150 152.5 155 157.5 160 162.5 165 167.5 170 172.5
175 177.5 180
0 22.5 45 67.5 90 112.5 135 157.5 180 202.5
225 247.5 270 292.5 315 337.5 360
388 388 388 386 383 380 376 371 365 358
351 342 333 324 314 303 291 279 267 254
241 227 213 198 184 170 156 142 129 116
103 91 80 69 59 50 19 364.6 928.3 1378.9
1694.6 1986.9 2269.1 2546 2816.5 3065.3 3446.2 3893.2 4242.4 4578.1
4839.6 5036.8 5082 5061.2 5159.9 5303.7 5463 5593.2 5652 5639.4
5615 5539.9 5354.4 5037.7 4691.2 4323 3965.6 3648.9 3367.5 3102.4
2891.6 2755.9 2699.8
388 388 388 386 383 380 376 371 365 358
351 342 333 324 314 303 291 279 267 254
241 227 213 198 184 170 156 142 129 116
103 91 80 69 59 50 17 200.9 655 1150
1701.9 2222.1 2590.3 2917 3221 3487 3877.8 4275 4658.6 4998.8
5231.3 5319.1 5271.1 5311 5422.2 5547.1 5650.2 5683.7 5662 5622.2
5567 5414.1 5125.5 4786.2 4430.6 4085.9 3772.9 3496 3245.4 3021
2840 2730.6 2699.8
388 388 388 386 383 380 376 371 365 358
351 342 333 324 314 303 291 279 267 254
241 227 213 198 184 170 156 142 129 116
103 91 80 69 59 50 17 162.9 563.7 1000.7
1473.9 1888.2 2240.2 2682.6 3282.5 3778.3 4186.3 4524.7 4695.7 4729.2
4829.6 5022.3 5269.3 5487.4 5629.4 5748.9 5824 5862 5795.9 5620.4
5343.5 5023.2 4694.8 4361.9 4047.9 3754.8 3491.5 3239 3027.3 2869
2765.9 2709.8 2699.8
388 388 388 386 383 380 376 371 365 358
351 342 333 324 314 303 291 279 267 254
241 227 213 198 184 170 156 142 129 116
103 91 80 69 59 50 23 212.6 557.3 919.2
1263 1677.4 2053.8 2358.7 2549.6 2791.2 3210.1 3602.8 3875.1 4139.3
4326.6 4427 4477.7 4528.3 4521.1 4514.8 4496.7 4444.2 4395.3 4338.3
4239.7 4095.9 3912.2 3708.6 3511.4 3303.3 3116.9 2955.9 2823.8 2740.5
2707 2703.4 2699.8
388 388 388 386 383 380 376 371 365 358
351 342 333 324 314 303 291 279 267 254
241 227 213 198 184 170 156 142 129 116
103 91 80 69 59 50 24 80.5 198.1 341.1
504.9 678.6 857.7 1029.6 1183.4 1316.4 1526.3 1776 1948.9 2141.6
2295.4 2456.4 2557.8 2638.3 2774 2901.6 3028.2 3151.3 3239 3309.6
3370.2 3369.3 3325 3230.9 3131.4 3020.1 2904.3 2796.6 2714.3 2661.8
2651.9 2679.9 2699.8
388 388 388 386 383 380 376 371 365 358
351 342 333 324 314 303 291 279 267 254
241 227 213 198 184 170 156 142 129 116
103 91 80 69 59 50 25 171.9 447 716.6
1041.4 1420.5 1731.7 1986 2233.9 2536 2870.8 3191.1 3498.7 3767.4
3961 4056 4033.4 4045.2 4065.1 4062.4 4054.2 4021.7 3969.2 3924.9
3856.1 3724 3555.7 3371.1 3195.6 3031.9 2883.5 2763.1 2679.9 2640.1
2633.8 2665.4 2699.8
388 388 388 386 383 380 376 371 365 358
351 342 333 324 314 303 291 279 267 254
241 227 213 198 184 170 156 142 129 116
103 91 80 69 59 50 26 199 528.4 864
1222.3 1547.1 1807.7 2140.7 2610.2 3082.5 3525 3879.6 4082.3 4213.5
4426.1 4684.9 4984.3 5249.4 5422.2 5559.8 5662 5689.1 5590.5 5372.5
5075.7 4750.9 4415.2 4062.4 3732.1 3430 3168.5 2930.5 2760.4 2668.1
2645.5 2661.8 2699.8
388 388 388 386 383 380 376 371 365 358
351 342 333 324 314 303 291 279 267 254
241 227 213 198 184 170 156 142 129 116
103 91 80 69 59 50 28 203.6 557.3 933.7
1294.7 1656.6 2005 2322.5 2558.7 2889.8 3336.8 3791 4190.9 4563.6
4840.5 4944.5 4992.5 5158 5281.1 5439.4 5571.5 5619.5 5620.4 5602.3
5501 5291 4961.7 4592.6 4228 3844.3 3503.2 3210.1 2961.3 2793.9
2722.4 2710.7 2699.8
388 388 388 386 383 380 376 371 365 358
351 342 333 324 314 303 291 279 267 254
241 227 213 198 184 170 156 142 129 116
103 91 80 69 59 50 17 221.7 589.9 919.2
1197 1482 1766.1 2049.3 2304.4 2524.3 2922.4 3413.7 3741.2 4092.2
4363.7 4608 4690.3 4709.3 4877.6 5056.7 5252.1 5421.3 5509.1 5539
5551.6 5453.9 5239.5 4889.3 4515.7 4123.9 3734.9 3385.6 3096.1 2862.7
2730.6 2697.1 2699.8
388 388 388 386 383 380 376 371 365 358
351 342 333 324 314 303 291 279 267 254
241 227 213 198 184 170 156 142 129 116
103 91 80 69 59 50 14 181 576.3 1004.3
1462.1 1933.5 2301.7 2632 2869.9 3125 3531.3 3959.2 4374.5 4732.8
5024.1 5168 5148.1 5254.9 5424 5582.4 5731.7 5810.4 5825.8 5829.4
5779.6 5593.2 5279.3 4907.4 4516.6 4118.5 3740.3 3402.8 3114.2 2893.4
2758.6 2717 2699.8
388 388 388 386 383 380 376 371 365 358
351 342 333 324 314 303 291 279 267 254
241 227 213 198 184 170 156 142 129 116
103 91 80 69 59 50 12 198.1 605.3 1030.5
1475.7 1870.1 2217.6 2599.4 3145.9 3639.9 4081.4 4453.2 4669.5 4696.6
4807 5021.4 5278.4 5512.7 5681 5786.9 5862 5925.3 5857.4 5678.3
5402.3 5084.8 4761.8 4422.5 4097.7 3791 3522.2 3265.3 3051.8 2890.7
2786.7 2733.3 2699.8
388 388 388 386 383 380 376 371 365 358
351 342 333 324 314 303 291 279 267 254
241 227 213 198 184 170 156 142 129 116
103 91 80 69 59 50 19 241.6 652.3 1081.2
1451.2 1860.2 2236.6 2560.5 2800.2 3088 3493.3 3886 4143.8 4405.3
4589.9 4676.7 4680.3 4657.7 4621.5 4587.1 4534.7 4455 4347.4 4232.5
4123.9 4000 3839.8 3671.5 3507.8 3346.7 3212.8 3097 2996.6 2905.2
2821 2751.4 2699.8
388 388 388 386 383 380 376 371 365 358
351 342 333 324 314 303 291 279 267 254
241 227 213 198 184 170 156 142 129 116
103 91 80 69 59 50 12 187.3 484 726.5
910.2 1085.7 1259.4 1428.6 1606.9 1779.7 1981.4 2194 2394 2575
2731.5 2852.7 2924.2 2968.5 3040 3135.9 3233.6 3321.4 3383.8 3415.5
3442.6 3468 3456.2 3395.6 3325 3240.9 3158.5 3085.2 3011 2928.7
2843.7 2771.3 2699.8
388 388 388 386 383 380 376 371 365 358
351 342 333 324 314 303 291 279 267 254
241 227 213 198 184 170 156 142 129 116
103 91 80 69 59 50 12 220.8 677.7 1128.2
1610.5 2121.7 2478.1 2761.3 3017.4 3279.8 3606.4 3930.3 4217.1 4429.7
4577.2 4641.4 4598 4555.5 4530.1 4513.9 4483.1 4425.2 4350.1 4278.6
4213.5 4123.9 3982.8 3821.7 3654.3 3493.3 3348.5 3218.2 3095.2 2972.1
2856.3 2769.5 2699.8
388 388 388 386 383 380 376 371 365 358
351 342 333 324 314 303 291 279 267 254
241 227 213 198 184 170 156 142 129 116
103 91 80 69 59 50 13 268.7 785.3 1277.5
1777.9 2193.1 2554.1 3014.7 3602.8 4102.2 4522 4843.2 4969.9 4998.8
5092.9 5252.1 5472.9 5667.4 5795.9 5863.8 5893.6 5909.9 5867.4 5680.1
5425.9 5140 4838.7 4528.3 4245.1 3985.5 3736.7 3481.5 3244.5 3044.5
2879.9 2759.5 2699.8
388 388 388 386 383 380 376 371 365 358
351 342 333 324 314 303 291 279 267 254
241 227 213 198 184 170 156 142 129 116
103 91 80 69 59 50 26 319.4 864 1412.3
1904.5 2333.4 2716.1 3047.2 3335.9 3651.6 4128.4 4568.1 4926.4 5240.4
5442.1 5501.9 5508.2 5600.5 5694.6 5826.7 5931.6 5972.3 5950.6 5909
5837.5 5671 5367 5026 4669.5 4293.1 3955.6 3649.8 3360.3 3105.1
2910.6 2774.9 2699.8
388 388 388 386 383 380 376 371 365 358
351 342 333 324 314 303 291 279 267 254
241 227 213 198 184 170 156 142 129 116
103 91 80 69 59 50 19 364.6 928.3 1378.9
1694.6 1986.9 2269.1 2546 2816.5 3065.3 3446.2 3893.2 4242.4 4578.1
4839.6 5036.8 5082 5061.2 5159.9 5303.7 5463 5593.2 5652 5639.4
5615 5539.9 5354.4 5037.7 4691.2 4323 3965.6 3648.9 3367.5 3102.4
2891.6 2755.9 2699.8
