IESNA:LM-63-2002
[TEST]253p381
[TESTLAB]METALUX RESEARCH LABS
[ISSUEDATE]04/15/09
[MANUFAC]COOPER LIGHTING - SHAPER
[LUMCAT]440-CFL/8/39-120V-30
[LUMINAIRE]SHAPER CRAFTSMAN LUMINOUS FLARED DIRECT/INDIRECT SQUARE. 4
[MORE]BAY, 2 LAMP BIAX PER EACH SIDE.
[LAMPCAT]FT36DL/830   36 WATT
[LAMP]EIGHT T5 BIAX FLUORESCENT LAMPS
TILT=NONE
8 2900 1 73 37 1 1 3.000000 3.000000 1.250000
1.000 1 65
0 2.5 5 7.5 10 12.5 15 17.5 20 22.5 25 27.5 30 32.5 35 37.5 40 42.5 45 47.5 50
52.5 55 57.5 60 62.5 65 67.5 70 72.5 75 77.5 80 82.5 85 87.5 90 92.5 95 97.5 100
102.5 105 107.5 110 112.5 115 117.5 120 122.5 125 127.5 130 132.5 135 137.5 140
142.5 145 147.5 150 152.5 155 157.5 160 162.5 165 167.5 170 172.5 175 177.5 180
0 10 20 30 40 50 60 70 80 90 100 110 120 130 140 150 160 170 180 190 200 210 220
230 240 250 260 270 280 290 300 310 320 330 340 350 360
1556 1562 1564 1562 1558 1549 1537 1520 1500 1486 1474 1459 1437 1404 1357 1294
1234 1165 1103 1049 1000 949 896 844 795 751 704 658 610 559 510 461 414 366 320
281 251 219 253 362 549 851 1165 1403 1619 1823 2013 2175 2343 2511 2682 2840
2996 3148 3299 3448 3574 3675 3765 3841 3906 3963 4020 4076 4124 4166 4202 4228
4258 4282 4301 4310 4316
1556 1561 1563 1562 1556 1549 1535 1518 1498 1481 1464 1450 1426 1393 1346 1288
1230 1162 1096 1041 990 939 889 837 789 744 698 652 604 557 508 461 414 370 330
294 259 221 271 412 632 953 1267 1497 1706 1897 2079 2242 2402 2560 2725 2876
3027 3173 3322 3467 3590 3691 3779 3854 3915 3973 4026 4081 4127 4168 4203 4232
4259 4283 4301 4311 4316
1556 1561 1562 1561 1557 1547 1534 1515 1495 1470 1452 1441 1412 1369 1322 1266
1209 1156 1090 1030 980 929 878 827 778 733 687 642 598 555 509 466 427 389 351
314 277 234 307 462 722 1056 1354 1581 1810 2014 2180 2331 2487 2646 2793 2939
3082 3226 3378 3510 3622 3716 3793 3861 3920 3977 4031 4082 4130 4170 4203 4231
4259 4282 4298 4309 4316
1556 1559 1561 1558 1555 1545 1532 1515 1492 1468 1443 1415 1395 1361 1316 1262
1205 1148 1092 1027 969 916 866 815 765 718 676 635 594 553 517 478 440 404 366
328 291 245 289 496 802 1135 1408 1628 1826 2011 2183 2380 2555 2715 2863 3011
3155 3307 3443 3555 3650 3730 3800 3863 3922 3979 4033 4083 4129 4166 4201 4231
4257 4280 4294 4308 4316
1556 1560 1561 1558 1554 1546 1533 1513 1493 1468 1438 1406 1376 1347 1308 1262
1213 1155 1091 1028 967 907 852 802 756 712 670 632 596 559 523 486 449 410 372
336 298 252 251 461 868 1182 1421 1636 1827 1997 2166 2345 2521 2711 2900 3075
3241 3383 3497 3587 3665 3735 3801 3867 3925 3985 4039 4097 4145 4170 4201 4231
4259 4278 4295 4306 4316
1556 1560 1560 1559 1554 1546 1533 1514 1493 1467 1437 1406 1372 1346 1307 1262
1211 1152 1092 1030 967 909 853 801 754 710 666 629 594 559 523 485 448 411 373
335 299 251 237 442 862 1178 1404 1607 1797 1976 2146 2331 2513 2699 2892 3085
3253 3383 3485 3574 3656 3731 3799 3865 3926 3985 4037 4089 4139 4173 4201 4231
4257 4280 4294 4305 4316
1556 1561 1562 1561 1555 1546 1533 1515 1494 1468 1443 1416 1392 1355 1312 1258
1203 1145 1089 1028 972 920 869 816 764 716 673 634 593 552 514 477 442 403 366
329 293 247 238 440 780 1111 1346 1549 1751 1945 2131 2328 2525 2709 2862 3005
3149 3298 3428 3536 3633 3719 3795 3863 3922 3979 4033 4082 4132 4168 4202 4229
4256 4279 4295 4305 4316
1556 1562 1564 1562 1557 1550 1535 1518 1496 1472 1454 1442 1414 1369 1321 1265
1208 1152 1091 1034 982 931 881 829 778 731 688 643 597 551 505 463 426 390 352
317 282 234 242 414 679 1004 1288 1504 1711 1934 2126 2287 2450 2609 2763 2915
3061 3209 3364 3494 3605 3701 3785 3855 3915 3974 4030 4083 4132 4171 4203 4231
4259 4283 4298 4308 4316
1556 1563 1565 1563 1558 1550 1537 1519 1499 1482 1467 1454 1428 1395 1348 1288
1230 1162 1098 1043 992 941 889 838 791 745 699 652 605 556 507 458 412 371 332
298 264 219 237 372 591 901 1211 1439 1647 1847 2036 2206 2373 2535 2701 2855
3009 3160 3315 3462 3585 3691 3775 3850 3911 3969 4027 4081 4129 4170 4203 4232
4263 4285 4303 4313 4316
1556 1562 1564 1562 1558 1549 1537 1520 1500 1486 1474 1459 1437 1404 1357 1294
1234 1165 1103 1049 1000 949 896 844 795 751 704 658 610 559 510 461 414 366 320
281 251 219 253 362 549 851 1165 1403 1619 1823 2013 2175 2343 2511 2682 2840
2996 3148 3299 3448 3574 3675 3765 3841 3906 3963 4020 4076 4124 4166 4202 4228
4258 4282 4301 4310 4316
1556 1561 1563 1562 1556 1549 1535 1518 1498 1481 1464 1450 1426 1393 1346 1288
1230 1162 1096 1041 990 939 889 837 789 744 698 652 604 557 508 461 414 370 330
294 259 221 271 412 632 953 1267 1497 1706 1897 2079 2242 2402 2560 2725 2876
3027 3173 3322 3467 3590 3691 3779 3854 3915 3973 4026 4081 4127 4168 4203 4232
4259 4283 4301 4311 4316
1556 1561 1562 1561 1557 1547 1534 1515 1495 1470 1452 1441 1412 1369 1322 1266
1209 1156 1090 1030 980 929 878 827 778 733 687 642 598 555 509 466 427 389 351
314 277 234 307 462 722 1056 1354 1581 1810 2014 2180 2331 2487 2646 2793 2939
3082 3226 3378 3510 3622 3716 3793 3861 3920 3977 4031 4082 4130 4170 4203 4231
4259 4282 4298 4309 4316
1556 1559 1561 1558 1555 1545 1532 1515 1492 1468 1443 1415 1395 1361 1316 1262
1205 1148 1092 1027 969 916 866 815 765 718 676 635 594 553 517 478 440 404 366
328 291 245 289 496 802 1135 1408 1628 1826 2011 2183 2380 2555 2715 2863 3011
3155 3307 3443 3555 3650 3730 3800 3863 3922 3979 4033 4083 4129 4166 4201 4231
4257 4280 4294 4308 4316
1556 1560 1561 1558 1554 1546 1533 1513 1493 1468 1438 1406 1376 1347 1308 1262
1213 1155 1091 1028 967 907 852 802 756 712 670 632 596 559 523 486 449 410 372
336 298 252 251 461 868 1182 1421 1636 1827 1997 2166 2345 2521 2711 2900 3075
3241 3383 3497 3587 3665 3735 3801 3867 3925 3985 4039 4097 4145 4170 4201 4231
4259 4278 4295 4306 4316
1556 1560 1560 1559 1554 1546 1533 1514 1493 1467 1437 1406 1372 1346 1307 1262
1211 1152 1092 1030 967 909 853 801 754 710 666 629 594 559 523 485 448 411 373
335 299 251 237 442 862 1178 1404 1607 1797 1976 2146 2331 2513 2699 2892 3085
3253 3383 3485 3574 3656 3731 3799 3865 3926 3985 4037 4089 4139 4173 4201 4231
4257 4280 4294 4305 4316
1556 1561 1562 1561 1555 1546 1533 1515 1494 1468 1443 1416 1392 1355 1312 1258
1203 1145 1089 1028 972 920 869 816 764 716 673 634 593 552 514 477 442 403 366
329 293 247 238 440 780 1111 1346 1549 1751 1945 2131 2328 2525 2709 2862 3005
3149 3298 3428 3536 3633 3719 3795 3863 3922 3979 4033 4082 4132 4168 4202 4229
4256 4279 4295 4305 4316
1556 1562 1564 1562 1557 1550 1535 1518 1496 1472 1454 1442 1414 1369 1321 1265
1208 1152 1091 1034 982 931 881 829 778 731 688 643 597 551 505 463 426 390 352
317 282 234 242 414 679 1004 1288 1504 1711 1934 2126 2287 2450 2609 2763 2915
3061 3209 3364 3494 3605 3701 3785 3855 3915 3974 4030 4083 4132 4171 4203 4231
4259 4283 4298 4308 4316
1556 1563 1565 1563 1558 1550 1537 1519 1499 1482 1467 1454 1428 1395 1348 1288
1230 1162 1098 1043 992 941 889 838 791 745 699 652 605 556 507 458 412 371 332
298 264 219 237 372 591 901 1211 1439 1647 1847 2036 2206 2373 2535 2701 2855
3009 3160 3315 3462 3585 3691 3775 3850 3911 3969 4027 4081 4129 4170 4203 4232
4263 4285 4303 4313 4316
1556 1562 1564 1562 1558 1549 1537 1520 1500 1486 1474 1459 1437 1404 1357 1294
1234 1165 1103 1049 1000 949 896 844 795 751 704 658 610 559 510 461 414 366 320
281 251 219 253 362 549 851 1165 1403 1619 1823 2013 2175 2343 2511 2682 2840
2996 3148 3299 3448 3574 3675 3765 3841 3906 3963 4020 4076 4124 4166 4202 4228
4258 4282 4301 4310 4316
1556 1561 1563 1562 1556 1549 1535 1518 1498 1481 1464 1450 1426 1393 1346 1288
1230 1162 1096 1041 990 939 889 837 789 744 698 652 604 557 508 461 414 370 330
294 259 221 271 412 632 953 1267 1497 1706 1897 2079 2242 2402 2560 2725 2876
3027 3173 3322 3467 3590 3691 3779 3854 3915 3973 4026 4081 4127 4168 4203 4232
4259 4283 4301 4311 4316
1556 1561 1562 1561 1557 1547 1534 1515 1495 1470 1452 1441 1412 1369 1322 1266
1209 1156 1090 1030 980 929 878 827 778 733 687 642 598 555 509 466 427 389 351
314 277 234 307 462 722 1056 1354 1581 1810 2014 2180 2331 2487 2646 2793 2939
3082 3226 3378 3510 3622 3716 3793 3861 3920 3977 4031 4082 4130 4170 4203 4231
4259 4282 4298 4309 4316
1556 1559 1561 1558 1555 1545 1532 1515 1492 1468 1443 1415 1395 1361 1316 1262
1205 1148 1092 1027 969 916 866 815 765 718 676 635 594 553 517 478 440 404 366
328 291 245 289 496 802 1135 1408 1628 1826 2011 2183 2380 2555 2715 2863 3011
3155 3307 3443 3555 3650 3730 3800 3863 3922 3979 4033 4083 4129 4166 4201 4231
4257 4280 4294 4308 4316
1556 1560 1561 1558 1554 1546 1533 1513 1493 1468 1438 1406 1376 1347 1308 1262
1213 1155 1091 1028 967 907 852 802 756 712 670 632 596 559 523 486 449 410 372
336 298 252 251 461 868 1182 1421 1636 1827 1997 2166 2345 2521 2711 2900 3075
3241 3383 3497 3587 3665 3735 3801 3867 3925 3985 4039 4097 4145 4170 4201 4231
4259 4278 4295 4306 4316
1556 1560 1560 1559 1554 1546 1533 1514 1493 1467 1437 1406 1372 1346 1307 1262
1211 1152 1092 1030 967 909 853 801 754 710 666 629 594 559 523 485 448 411 373
335 299 251 237 442 862 1178 1404 1607 1797 1976 2146 2331 2513 2699 2892 3085
3253 3383 3485 3574 3656 3731 3799 3865 3926 3985 4037 4089 4139 4173 4201 4231
4257 4280 4294 4305 4316
1556 1561 1562 1561 1555 1546 1533 1515 1494 1468 1443 1416 1392 1355 1312 1258
1203 1145 1089 1028 972 920 869 816 764 716 673 634 593 552 514 477 442 403 366
329 293 247 238 440 780 1111 1346 1549 1751 1945 2131 2328 2525 2709 2862 3005
3149 3298 3428 3536 3633 3719 3795 3863 3922 3979 4033 4082 4132 4168 4202 4229
4256 4279 4295 4305 4316
1556 1562 1564 1562 1557 1550 1535 1518 1496 1472 1454 1442 1414 1369 1321 1265
1208 1152 1091 1034 982 931 881 829 778 731 688 643 597 551 505 463 426 390 352
317 282 234 242 414 679 1004 1288 1504 1711 1934 2126 2287 2450 2609 2763 2915
3061 3209 3364 3494 3605 3701 3785 3855 3915 3974 4030 4083 4132 4171 4203 4231
4259 4283 4298 4308 4316
1556 1563 1565 1563 1558 1550 1537 1519 1499 1482 1467 1454 1428 1395 1348 1288
1230 1162 1098 1043 992 941 889 838 791 745 699 652 605 556 507 458 412 371 332
298 264 219 237 372 591 901 1211 1439 1647 1847 2036 2206 2373 2535 2701 2855
3009 3160 3315 3462 3585 3691 3775 3850 3911 3969 4027 4081 4129 4170 4203 4232
4263 4285 4303 4313 4316
1556 1562 1564 1562 1558 1549 1537 1520 1500 1486 1474 1459 1437 1404 1357 1294
1234 1165 1103 1049 1000 949 896 844 795 751 704 658 610 559 510 461 414 366 320
281 251 219 253 362 549 851 1165 1403 1619 1823 2013 2175 2343 2511 2682 2840
2996 3148 3299 3448 3574 3675 3765 3841 3906 3963 4020 4076 4124 4166 4202 4228
4258 4282 4301 4310 4316
1556 1561 1563 1562 1556 1549 1535 1518 1498 1481 1464 1450 1426 1393 1346 1288
1230 1162 1096 1041 990 939 889 837 789 744 698 652 604 557 508 461 414 370 330
294 259 221 271 412 632 953 1267 1497 1706 1897 2079 2242 2402 2560 2725 2876
3027 3173 3322 3467 3590 3691 3779 3854 3915 3973 4026 4081 4127 4168 4203 4232
4259 4283 4301 4311 4316
1556 1561 1562 1561 1557 1547 1534 1515 1495 1470 1452 1441 1412 1369 1322 1266
1209 1156 1090 1030 980 929 878 827 778 733 687 642 598 555 509 466 427 389 351
314 277 234 307 462 722 1056 1354 1581 1810 2014 2180 2331 2487 2646 2793 2939
3082 3226 3378 3510 3622 3716 3793 3861 3920 3977 4031 4082 4130 4170 4203 4231
4259 4282 4298 4309 4316
1556 1559 1561 1558 1555 1545 1532 1515 1492 1468 1443 1415 1395 1361 1316 1262
1205 1148 1092 1027 969 916 866 815 765 718 676 635 594 553 517 478 440 404 366
328 291 245 289 496 802 1135 1408 1628 1826 2011 2183 2380 2555 2715 2863 3011
3155 3307 3443 3555 3650 3730 3800 3863 3922 3979 4033 4083 4129 4166 4201 4231
4257 4280 4294 4308 4316
1556 1560 1561 1558 1554 1546 1533 1513 1493 1468 1438 1406 1376 1347 1308 1262
1213 1155 1091 1028 967 907 852 802 756 712 670 632 596 559 523 486 449 410 372
336 298 252 251 461 868 1182 1421 1636 1827 1997 2166 2345 2521 2711 2900 3075
3241 3383 3497 3587 3665 3735 3801 3867 3925 3985 4039 4097 4145 4170 4201 4231
4259 4278 4295 4306 4316
1556 1560 1560 1559 1554 1546 1533 1514 1493 1467 1437 1406 1372 1346 1307 1262
1211 1152 1092 1030 967 909 853 801 754 710 666 629 594 559 523 485 448 411 373
335 299 251 237 442 862 1178 1404 1607 1797 1976 2146 2331 2513 2699 2892 3085
3253 3383 3485 3574 3656 3731 3799 3865 3926 3985 4037 4089 4139 4173 4201 4231
4257 4280 4294 4305 4316
1556 1561 1562 1561 1555 1546 1533 1515 1494 1468 1443 1416 1392 1355 1312 1258
1203 1145 1089 1028 972 920 869 816 764 716 673 634 593 552 514 477 442 403 366
329 293 247 238 440 780 1111 1346 1549 1751 1945 2131 2328 2525 2709 2862 3005
3149 3298 3428 3536 3633 3719 3795 3863 3922 3979 4033 4082 4132 4168 4202 4229
4256 4279 4295 4305 4316
1556 1562 1564 1562 1557 1550 1535 1518 1496 1472 1454 1442 1414 1369 1321 1265
1208 1152 1091 1034 982 931 881 829 778 731 688 643 597 551 505 463 426 390 352
317 282 234 242 414 679 1004 1288 1504 1711 1934 2126 2287 2450 2609 2763 2915
3061 3209 3364 3494 3605 3701 3785 3855 3915 3974 4030 4083 4132 4171 4203 4231
4259 4283 4298 4308 4316
1556 1563 1565 1563 1558 1550 1537 1519 1499 1482 1467 1454 1428 1395 1348 1288
1230 1162 1098 1043 992 941 889 838 791 745 699 652 605 556 507 458 412 371 332
298 264 219 237 372 591 901 1211 1439 1647 1847 2036 2206 2373 2535 2701 2855
3009 3160 3315 3462 3585 3691 3775 3850 3911 3969 4027 4081 4129 4170 4203 4232
4263 4285 4303 4313 4316
1556 1562 1564 1562 1558 1549 1537 1520 1500 1486 1474 1459 1437 1404 1357 1294
1234 1165 1103 1049 1000 949 896 844 795 751 704 658 610 559 510 461 414 366 320
281 251 219 253 362 549 851 1165 1403 1619 1823 2013 2175 2343 2511 2682 2840
2996 3148 3299 3448 3574 3675 3765 3841 3906 3963 4020 4076 4124 4166 4202 4228
4258 4282 4301 4310 4316
