IESNA:LM-63-2002
[TEST]253p383
[TESTLAB]METALUX RESEARCH LABS
[ISSUEDATE]04/15/09
[MANUFAC]COOPER LIGHTING - SHAPER
[LUMCAT]440-CFL/4/42-120V-30
[LUMINAIRE]SHAPER CRAFTSMAN LUMINOUS FLARED DIRECT/INDIRECT SQUARE. 4
[MORE]BAY, 1 LAMP COMPACT FLUORESCENT PER EACH SIDE.
[LAMPCAT]CF42TTT/841   42 WATT
[LAMP]FOUR COMPACT FLUORESCENT TRIPLE TUBE LAMP
TILT=NONE
4 3200 1 73 37 1 1 3.000000 3.000000 1.250000
1.000 1 48
0 2.5 5 7.5 10 12.5 15 17.5 20 22.5 25 27.5 30 32.5 35 37.5 40 42.5 45 47.5 50
52.5 55 57.5 60 62.5 65 67.5 70 72.5 75 77.5 80 82.5 85 87.5 90 92.5 95 97.5 100
102.5 105 107.5 110 112.5 115 117.5 120 122.5 125 127.5 130 132.5 135 137.5 140
142.5 145 147.5 150 152.5 155 157.5 160 162.5 165 167.5 170 172.5 175 177.5 180
0 10 20 30 40 50 60 70 80 90 100 110 120 130 140 150 160 170 180 190 200 210 220
230 240 250 260 270 280 290 300 310 320 330 340 350 360
632 629 629 629 627 624 619 613 607 615 650 647 655 625 597 557 521 482 447 426
407 386 367 348 329 311 294 275 255 235 215 196 178 159 142 127 113 100 101 145
311 532 746 829 909 973 1018 1070 1127 1205 1281 1348 1431 1495 1552 1608 1658
1702 1740 1766 1807 1840 1869 1905 1939 1967 1992 2015 2037 2043 2043 2048 2068
632 629 630 628 627 624 620 614 607 611 638 635 655 624 597 561 520 482 448 426
406 387 368 347 330 311 292 273 255 235 216 197 178 160 145 129 117 101 101 170
358 581 785 859 935 994 1036 1086 1148 1228 1299 1372 1448 1510 1565 1617 1665
1708 1745 1774 1810 1840 1870 1904 1935 1964 1990 2014 2036 2043 2043 2047 2068
632 629 629 629 627 625 620 614 605 604 612 630 640 629 591 549 511 478 447 424
402 384 364 344 326 309 291 272 253 236 217 200 184 168 153 137 123 106 109 227
442 642 816 890 961 1011 1051 1100 1170 1250 1310 1390 1457 1516 1569 1621 1665
1714 1751 1793 1829 1858 1894 1923 1949 1973 1992 2012 2030 2037 2040 2048 2068
632 630 631 631 630 625 622 615 606 598 600 612 606 613 585 553 517 480 450 422
398 380 361 342 322 306 288 271 254 237 222 207 190 175 161 144 129 110 126 328
557 751 833 895 959 1006 1064 1128 1203 1261 1337 1402 1465 1521 1576 1622 1676
1718 1760 1800 1830 1869 1904 1938 1968 1993 2010 2027 2037 2037 2043 2053 2068
632 634 636 636 633 631 625 618 609 599 590 589 589 586 573 546 509 476 448 423
400 379 360 341 321 304 288 272 258 242 227 212 197 181 166 150 135 113 112 341
645 800 862 902 930 984 1063 1146 1221 1303 1369 1431 1488 1543 1594 1652 1692
1731 1770 1805 1844 1881 1917 1951 1984 2012 2030 2045 2047 2044 2047 2064 2068
632 638 640 639 637 634 629 622 613 605 595 591 587 583 566 538 511 480 451 424
402 381 362 341 323 306 289 274 261 245 230 215 198 183 168 152 138 114 109 302
633 794 854 900 942 998 1060 1156 1232 1319 1392 1457 1514 1567 1611 1666 1703
1741 1781 1816 1853 1892 1927 1958 1988 2018 2040 2054 2055 2053 2056 2072 2068
632 639 641 640 639 636 629 624 615 607 614 612 616 598 577 539 508 480 452 428
407 384 365 345 326 308 292 275 259 243 227 214 197 182 167 151 135 111 127 285
509 726 824 903 967 1029 1087 1156 1241 1308 1378 1444 1505 1559 1604 1648 1698
1736 1776 1819 1850 1886 1922 1956 1984 2008 2029 2042 2051 2052 2056 2068 2068
632 641 642 642 641 637 632 626 622 619 628 655 640 626 582 550 517 486 457 432
410 390 371 351 332 314 297 278 260 242 224 207 192 178 162 146 131 107 112 206
401 631 815 905 983 1041 1086 1142 1209 1293 1352 1431 1497 1552 1601 1651 1695
1741 1775 1815 1852 1881 1914 1944 1970 1993 2015 2035 2054 2059 2062 2071 2068
632 641 643 642 641 638 633 627 622 634 656 661 676 647 616 581 539 497 461 438
416 398 377 356 339 320 303 283 264 243 224 205 186 169 154 140 125 103 103 166
353 589 810 887 962 1021 1065 1116 1176 1256 1330 1398 1476 1535 1589 1639 1684
1727 1762 1791 1828 1857 1888 1923 1956 1986 2014 2038 2060 2068 2066 2072 2068
632 629 629 629 627 624 619 613 607 615 650 647 655 625 597 557 521 482 447 426
407 386 367 348 329 311 294 275 255 235 215 196 178 159 142 127 113 100 101 145
311 532 746 829 909 973 1018 1070 1127 1205 1281 1348 1431 1495 1552 1608 1658
1702 1740 1766 1807 1840 1869 1905 1939 1967 1992 2015 2037 2043 2043 2048 2068
632 629 630 628 627 624 620 614 607 611 638 635 655 624 597 561 520 482 448 426
406 387 368 347 330 311 292 273 255 235 216 197 178 160 145 129 117 101 101 170
358 581 785 859 935 994 1036 1086 1148 1228 1299 1372 1448 1510 1565 1617 1665
1708 1745 1774 1810 1840 1870 1904 1935 1964 1990 2014 2036 2043 2043 2047 2068
632 629 629 629 627 625 620 614 605 604 612 630 640 629 591 549 511 478 447 424
402 384 364 344 326 309 291 272 253 236 217 200 184 168 153 137 123 106 109 227
442 642 816 890 961 1011 1051 1100 1170 1250 1310 1390 1457 1516 1569 1621 1665
1714 1751 1793 1829 1858 1894 1923 1949 1973 1992 2012 2030 2037 2040 2048 2068
632 630 631 631 630 625 622 615 606 598 600 612 606 613 585 553 517 480 450 422
398 380 361 342 322 306 288 271 254 237 222 207 190 175 161 144 129 110 126 328
557 751 833 895 959 1006 1064 1128 1203 1261 1337 1402 1465 1521 1576 1622 1676
1718 1760 1800 1830 1869 1904 1938 1968 1993 2010 2027 2037 2037 2043 2053 2068
632 634 636 636 633 631 625 618 609 599 590 589 589 586 573 546 509 476 448 423
400 379 360 341 321 304 288 272 258 242 227 212 197 181 166 150 135 113 112 341
645 800 862 902 930 984 1063 1146 1221 1303 1369 1431 1488 1543 1594 1652 1692
1731 1770 1805 1844 1881 1917 1951 1984 2012 2030 2045 2047 2044 2047 2064 2068
632 638 640 639 637 634 629 622 613 605 595 591 587 583 566 538 511 480 451 424
402 381 362 341 323 306 289 274 261 245 230 215 198 183 168 152 138 114 109 302
633 794 854 900 942 998 1060 1156 1232 1319 1392 1457 1514 1567 1611 1666 1703
1741 1781 1816 1853 1892 1927 1958 1988 2018 2040 2054 2055 2053 2056 2072 2068
632 639 641 640 639 636 629 624 615 607 614 612 616 598 577 539 508 480 452 428
407 384 365 345 326 308 292 275 259 243 227 214 197 182 167 151 135 111 127 285
509 726 824 903 967 1029 1087 1156 1241 1308 1378 1444 1505 1559 1604 1648 1698
1736 1776 1819 1850 1886 1922 1956 1984 2008 2029 2042 2051 2052 2056 2068 2068
632 641 642 642 641 637 632 626 622 619 628 655 640 626 582 550 517 486 457 432
410 390 371 351 332 314 297 278 260 242 224 207 192 178 162 146 131 107 112 206
401 631 815 905 983 1041 1086 1142 1209 1293 1352 1431 1497 1552 1601 1651 1695
1741 1775 1815 1852 1881 1914 1944 1970 1993 2015 2035 2054 2059 2062 2071 2068
632 641 643 642 641 638 633 627 622 634 656 661 676 647 616 581 539 497 461 438
416 398 377 356 339 320 303 283 264 243 224 205 186 169 154 140 125 103 103 166
353 589 810 887 962 1021 1065 1116 1176 1256 1330 1398 1476 1535 1589 1639 1684
1727 1762 1791 1828 1857 1888 1923 1956 1986 2014 2038 2060 2068 2066 2072 2068
632 629 629 629 627 624 619 613 607 615 650 647 655 625 597 557 521 482 447 426
407 386 367 348 329 311 294 275 255 235 215 196 178 159 142 127 113 100 101 145
311 532 746 829 909 973 1018 1070 1127 1205 1281 1348 1431 1495 1552 1608 1658
1702 1740 1766 1807 1840 1869 1905 1939 1967 1992 2015 2037 2043 2043 2048 2068
632 629 630 628 627 624 620 614 607 611 638 635 655 624 597 561 520 482 448 426
406 387 368 347 330 311 292 273 255 235 216 197 178 160 145 129 117 101 101 170
358 581 785 859 935 994 1036 1086 1148 1228 1299 1372 1448 1510 1565 1617 1665
1708 1745 1774 1810 1840 1870 1904 1935 1964 1990 2014 2036 2043 2043 2047 2068
632 629 629 629 627 625 620 614 605 604 612 630 640 629 591 549 511 478 447 424
402 384 364 344 326 309 291 272 253 236 217 200 184 168 153 137 123 106 109 227
442 642 816 890 961 1011 1051 1100 1170 1250 1310 1390 1457 1516 1569 1621 1665
1714 1751 1793 1829 1858 1894 1923 1949 1973 1992 2012 2030 2037 2040 2048 2068
632 630 631 631 630 625 622 615 606 598 600 612 606 613 585 553 517 480 450 422
398 380 361 342 322 306 288 271 254 237 222 207 190 175 161 144 129 110 126 328
557 751 833 895 959 1006 1064 1128 1203 1261 1337 1402 1465 1521 1576 1622 1676
1718 1760 1800 1830 1869 1904 1938 1968 1993 2010 2027 2037 2037 2043 2053 2068
632 634 636 636 633 631 625 618 609 599 590 589 589 586 573 546 509 476 448 423
400 379 360 341 321 304 288 272 258 242 227 212 197 181 166 150 135 113 112 341
645 800 862 902 930 984 1063 1146 1221 1303 1369 1431 1488 1543 1594 1652 1692
1731 1770 1805 1844 1881 1917 1951 1984 2012 2030 2045 2047 2044 2047 2064 2068
632 638 640 639 637 634 629 622 613 605 595 591 587 583 566 538 511 480 451 424
402 381 362 341 323 306 289 274 261 245 230 215 198 183 168 152 138 114 109 302
633 794 854 900 942 998 1060 1156 1232 1319 1392 1457 1514 1567 1611 1666 1703
1741 1781 1816 1853 1892 1927 1958 1988 2018 2040 2054 2055 2053 2056 2072 2068
632 639 641 640 639 636 629 624 615 607 614 612 616 598 577 539 508 480 452 428
407 384 365 345 326 308 292 275 259 243 227 214 197 182 167 151 135 111 127 285
509 726 824 903 967 1029 1087 1156 1241 1308 1378 1444 1505 1559 1604 1648 1698
1736 1776 1819 1850 1886 1922 1956 1984 2008 2029 2042 2051 2052 2056 2068 2068
632 641 642 642 641 637 632 626 622 619 628 655 640 626 582 550 517 486 457 432
410 390 371 351 332 314 297 278 260 242 224 207 192 178 162 146 131 107 112 206
401 631 815 905 983 1041 1086 1142 1209 1293 1352 1431 1497 1552 1601 1651 1695
1741 1775 1815 1852 1881 1914 1944 1970 1993 2015 2035 2054 2059 2062 2071 2068
632 641 643 642 641 638 633 627 622 634 656 661 676 647 616 581 539 497 461 438
416 398 377 356 339 320 303 283 264 243 224 205 186 169 154 140 125 103 103 166
353 589 810 887 962 1021 1065 1116 1176 1256 1330 1398 1476 1535 1589 1639 1684
1727 1762 1791 1828 1857 1888 1923 1956 1986 2014 2038 2060 2068 2066 2072 2068
632 629 629 629 627 624 619 613 607 615 650 647 655 625 597 557 521 482 447 426
407 386 367 348 329 311 294 275 255 235 215 196 178 159 142 127 113 100 101 145
311 532 746 829 909 973 1018 1070 1127 1205 1281 1348 1431 1495 1552 1608 1658
1702 1740 1766 1807 1840 1869 1905 1939 1967 1992 2015 2037 2043 2043 2048 2068
632 629 630 628 627 624 620 614 607 611 638 635 655 624 597 561 520 482 448 426
406 387 368 347 330 311 292 273 255 235 216 197 178 160 145 129 117 101 101 170
358 581 785 859 935 994 1036 1086 1148 1228 1299 1372 1448 1510 1565 1617 1665
1708 1745 1774 1810 1840 1870 1904 1935 1964 1990 2014 2036 2043 2043 2047 2068
632 629 629 629 627 625 620 614 605 604 612 630 640 629 591 549 511 478 447 424
402 384 364 344 326 309 291 272 253 236 217 200 184 168 153 137 123 106 109 227
442 642 816 890 961 1011 1051 1100 1170 1250 1310 1390 1457 1516 1569 1621 1665
1714 1751 1793 1829 1858 1894 1923 1949 1973 1992 2012 2030 2037 2040 2048 2068
632 630 631 631 630 625 622 615 606 598 600 612 606 613 585 553 517 480 450 422
398 380 361 342 322 306 288 271 254 237 222 207 190 175 161 144 129 110 126 328
557 751 833 895 959 1006 1064 1128 1203 1261 1337 1402 1465 1521 1576 1622 1676
1718 1760 1800 1830 1869 1904 1938 1968 1993 2010 2027 2037 2037 2043 2053 2068
632 634 636 636 633 631 625 618 609 599 590 589 589 586 573 546 509 476 448 423
400 379 360 341 321 304 288 272 258 242 227 212 197 181 166 150 135 113 112 341
645 800 862 902 930 984 1063 1146 1221 1303 1369 1431 1488 1543 1594 1652 1692
1731 1770 1805 1844 1881 1917 1951 1984 2012 2030 2045 2047 2044 2047 2064 2068
632 638 640 639 637 634 629 622 613 605 595 591 587 583 566 538 511 480 451 424
402 381 362 341 323 306 289 274 261 245 230 215 198 183 168 152 138 114 109 302
633 794 854 900 942 998 1060 1156 1232 1319 1392 1457 1514 1567 1611 1666 1703
1741 1781 1816 1853 1892 1927 1958 1988 2018 2040 2054 2055 2053 2056 2072 2068
632 639 641 640 639 636 629 624 615 607 614 612 616 598 577 539 508 480 452 428
407 384 365 345 326 308 292 275 259 243 227 214 197 182 167 151 135 111 127 285
509 726 824 903 967 1029 1087 1156 1241 1308 1378 1444 1505 1559 1604 1648 1698
1736 1776 1819 1850 1886 1922 1956 1984 2008 2029 2042 2051 2052 2056 2068 2068
632 641 642 642 641 637 632 626 622 619 628 655 640 626 582 550 517 486 457 432
410 390 371 351 332 314 297 278 260 242 224 207 192 178 162 146 131 107 112 206
401 631 815 905 983 1041 1086 1142 1209 1293 1352 1431 1497 1552 1601 1651 1695
1741 1775 1815 1852 1881 1914 1944 1970 1993 2015 2035 2054 2059 2062 2071 2068
632 641 643 642 641 638 633 627 622 634 656 661 676 647 616 581 539 497 461 438
416 398 377 356 339 320 303 283 264 243 224 205 186 169 154 140 125 103 103 166
353 589 810 887 962 1021 1065 1116 1176 1256 1330 1398 1476 1535 1589 1639 1684
1727 1762 1791 1828 1857 1888 1923 1956 1986 2014 2038 2060 2068 2066 2072 2068
632 629 629 629 627 624 619 613 607 615 650 647 655 625 597 557 521 482 447 426
407 386 367 348 329 311 294 275 255 235 215 196 178 159 142 127 113 100 101 145
311 532 746 829 909 973 1018 1070 1127 1205 1281 1348 1431 1495 1552 1608 1658
1702 1740 1766 1807 1840 1869 1905 1939 1967 1992 2015 2037 2043 2043 2048 2068
