IESNA:LM-63-1995
[TEST]     19161
[MANUFAC]COOPER LIGHTING - SHAPER                                 
[LUMCAT]666-WP-16-CF1/27                                                                
[LUMINAIRE]EXTERIOR WALL MOUNT LUMINAIRE WITH WHITE INTERIOR AND WHITE PLASTIC LENS                                      
[LAMP]ONE GE 27 WATT CPFL LAMP                                                        
[LAMPCAT]F27/24BX/SPX35. LUMEN RATING = 1800 LMS.                                        
[OTHER]ONE UNIVERSAL C2642UNVSE BALLAST OPERATING AT 120 VAC AND 25 WATTS              
TILT=NONE
1
      1800
1
73
17
1
1
  0.25
  0.42
  1.25
1
1
   25.0000
0 2.5 5 7.5 10 12.5 15 17.5 20 22.5 25 27.5 30 32.5 35 37.5
40 42.5 45 47.5 50 52.5 55 57.5 60 62.5 65 67.5 70 72.5 75
77.5 80 82.5 85 87.5 90 92.5 95 97.5 100 102.5 105 107.5 110
112.5 115 117.5 120 122.5 125 127.5 130 132.5 135 137.5 140
142.5 145 147.5 150 152.5 155 157.5 160 162.5 165 167.5 170
172.5 175 177.5 180
0 22.5 45 67.5 90 112.5 135 157.5 180 202.5 225 247.5
270 292.5 315 337.5 360
      28.2       30.7       36.2       43.0       50.2       56.0       59.8       62.2       63.4       63.9
      63.6       62.9       62.3       61.6       60.8       60.1       59.1       57.8       57.0       56.1
      55.3       54.5       53.5       53.3       53.2       53.2       53.4       53.5       53.7       54.0
      54.1       54.2       54.1       54.1       53.9       54.0       54.0       54.7       54.6       54.1
      53.6       53.0       52.1       51.2       50.2       49.2       47.9       46.6       45.2       43.7
      42.0       40.5       38.8       36.7       34.8       32.8       30.8       28.7       26.1       24.0
      21.5       19.4       17.0       14.7       12.0       10.0        7.5        5.5        3.4        2.0
       0.9        0.6        0.5
      28.2       29.4       35.1       41.1       46.5       51.8       56.9       60.3       61.6       62.5
      63.5       64.9       65.5       65.8       65.8       64.9       64.1       64.1       63.4       63.1
      62.9       62.7       63.2       63.7       64.3       65.2       66.1       66.8       67.8       68.5
      69.1       69.6       70.1       70.2       70.5       70.2       70.2       74.6       74.3       73.8
      73.0       72.2       71.6       70.4       68.9       67.7       66.0       64.1       62.4       60.6
      58.4       56.6       54.3       51.5       48.9       46.4       44.0       41.2       38.2       35.2
      32.3       29.1       25.7       22.8       19.3       16.1       12.8        9.8        7.1        4.2
       2.4        0.7        0.5
      28.2       30.3       37.7       45.4       51.9       57.1       61.4       64.1       65.2       65.6
      66.2       66.5       66.8       66.6       66.4       65.9       65.1       65.2       64.9       63.9
      64.1       64.3       65.1       66.1       66.8       68.3       69.8       71.0       72.1       72.9
      73.8       74.4       75.0       75.7       76.0       76.0       76.2       78.3       78.4       78.0
      77.0       76.1       75.5       74.1       72.6       71.1       69.4       67.7       66.0       63.6
      61.7       59.3       57.0       54.7       52.0       49.0       46.3       43.2       40.4       37.3
      34.1       30.8       27.5       23.9       20.8       17.4       14.0       10.5        7.7        5.0
       2.6        0.7        0.5
      28.2       31.9       40.3       50.8       60.7       68.4       73.5       76.3       78.1       78.2
      77.8       77.2       77.0       76.2       75.6       74.5       72.6       71.6       70.4       69.7
      69.0       68.4       69.1       69.8       71.0       72.5       73.5       74.8       75.9       77.4
      78.3       79.0       79.7       80.0       80.5       80.9       80.9       84.7       84.7       84.1
      83.1       82.3       80.8       79.5       78.3       76.2       74.6       72.2       70.0       68.0
      65.5       62.5       59.7       57.0       54.1       51.0       47.3       44.0       40.7       37.0
      33.7       30.0       26.6       22.9       19.2       15.8       12.5        9.4        6.4        4.0
       1.9        0.6        0.5
      28.2       32.4       41.5       52.6       64.6       72.7       79.3       83.2       84.2       84.7
      84.1       82.9       82.1       80.9       80.9       80.8       80.7       80.2       78.7       77.8
      76.6       76.9       77.4       78.8       80.7       82.2       83.6       85.1       86.3       87.3
      88.5       89.3       89.8       90.9       90.9       91.5       91.6       91.2       91.1       90.5
      89.6       88.7       87.0       85.7       84.2       82.1       80.1       78.0       75.8       72.8
      70.1       67.6       64.5       61.0       57.9       54.6       50.5       46.9       43.3       39.3
      35.5       31.3       27.3       23.3       19.9       16.0       12.2        8.6        5.8        3.5
       1.5        0.5        0.5
      28.2       31.9       40.3       50.8       60.7       68.4       73.5       76.3       78.1       78.2
      77.8       77.2       77.0       76.2       75.6       74.5       72.6       71.6       70.4       69.7
      69.0       68.4       69.1       69.8       71.0       72.5       73.5       74.8       75.9       77.4
      78.3       79.0       79.7       80.0       80.5       80.9       80.9       84.7       84.7       84.1
      83.1       82.3       80.8       79.5       78.3       76.2       74.6       72.2       70.0       68.0
      65.5       62.5       59.7       57.0       54.1       51.0       47.3       44.0       40.7       37.0
      33.7       30.0       26.6       22.9       19.2       15.8       12.5        9.4        6.4        4.0
       1.9        0.6        0.5
      28.2       30.3       37.7       45.4       51.9       57.1       61.4       64.1       65.2       65.6
      66.2       66.5       66.8       66.6       66.4       65.9       65.1       65.2       64.9       63.9
      64.1       64.3       65.1       66.1       66.8       68.3       69.8       71.0       72.1       72.9
      73.8       74.4       75.0       75.7       76.0       76.0       76.2       78.3       78.4       78.0
      77.0       76.1       75.5       74.1       72.6       71.1       69.4       67.7       66.0       63.6
      61.7       59.3       57.0       54.7       52.0       49.0       46.3       43.2       40.4       37.3
      34.1       30.8       27.5       23.9       20.8       17.4       14.0       10.5        7.7        5.0
       2.6        0.7        0.5
      28.2       29.4       35.1       41.1       46.5       51.8       56.9       60.3       61.6       62.5
      63.5       64.9       65.5       65.8       65.8       64.9       64.1       64.1       63.4       63.1
      62.9       62.7       63.2       63.7       64.3       65.2       66.1       66.8       67.8       68.5
      69.1       69.6       70.1       70.2       70.5       70.2       70.2       74.6       74.3       73.8
      73.0       72.2       71.6       70.4       68.9       67.7       66.0       64.1       62.4       60.6
      58.4       56.6       54.3       51.5       48.9       46.4       44.0       41.2       38.2       35.2
      32.3       29.1       25.7       22.8       19.3       16.1       12.8        9.8        7.1        4.2
       2.4        0.7        0.5
      28.2       30.7       36.2       43.0       50.2       56.0       59.8       62.2       63.4       63.9
      63.6       62.9       62.3       61.6       60.8       60.1       59.1       57.8       57.0       56.1
      55.3       54.5       53.5       53.3       53.2       53.2       53.4       53.5       53.7       54.0
      54.1       54.2       54.1       54.1       53.9       54.0       54.0       54.7       54.6       54.1
      53.6       53.0       52.1       51.2       50.2       49.2       47.9       46.6       45.2       43.7
      42.0       40.5       38.8       36.7       34.8       32.8       30.8       28.7       26.1       24.0
      21.5       19.4       17.0       14.7       12.0       10.0        7.5        5.5        3.4        2.0
       0.9        0.6        0.5
      28.2       32.3       41.3       51.3       61.6       69.4       75.3       77.9       79.2       79.2
      78.4       76.5       73.8       70.3       67.3       63.8       60.5       57.0       53.8       50.8
      48.0       45.1       42.8       40.3       38.4       36.4       34.9       34.0       33.4       33.0
      32.6       32.0       31.8       31.2       31.1       30.8       30.6       27.0       26.9       26.5
      26.3       26.0       25.5       25.0       24.4       23.6       22.8       22.2       21.1       20.5
      19.4       18.7       17.7       16.6       15.6       14.6       13.3       12.2       10.9        9.8
       8.3        7.2        5.9        5.2        4.0        2.8        2.3        1.5        0.9        0.5
       0.5        0.5        0.5
      28.2       33.3       42.8       54.2       66.5       78.3       84.8       87.5       88.4       87.2
      84.7       79.9       75.1       69.6       64.2       58.5       53.1       47.4       42.0       36.9
      32.3       27.8       23.6       20.1       16.3       13.3       11.0        9.3        7.9        7.1
       6.0        5.5        4.8        4.1        3.7        3.3        3.3        1.7        1.8        1.7
       1.6        1.7        1.3        1.5        1.2        1.3        1.3        1.2        1.2        1.0
       1.0        0.7        0.7        0.9        0.5        0.5        0.5        0.5        0.6        0.5
       0.5        0.6        0.5        0.5        0.5        0.5        0.5        0.5        0.5        0.5
       0.5        0.5        0.5
      28.2       33.7       43.0       53.8       64.9       72.9       79.7       82.6       82.8       80.2
      75.8       70.7       65.5       59.6       54.0       47.9       42.3       37.3       32.5       27.9
      23.4       19.6       15.8       12.8       11.0        9.1        7.5        5.9        4.8        3.8
       2.9        2.1        1.5        0.7        0.5        0.5        0.5        0.7        0.6        0.6
       0.5        0.6        0.5        0.5        0.5        0.6        0.6        0.5        0.6        0.5
       0.6        0.5        0.5        0.5        0.5        0.5        0.5        0.5        0.5        0.5
       0.5        0.5        0.5        0.5        0.5        0.5        0.5        0.5        0.5        0.5
       0.5        0.5        0.5
      28.2       33.5       41.7       53.1       65.8       76.7       84.4       86.9       85.8       82.2
      77.8       72.1       66.2       59.6       53.5       47.4       41.7       35.9       31.1       26.7
      22.6       18.4       15.3       13.0       11.0        9.4        7.3        6.1        4.7        4.1
       3.3        2.2        1.8        1.3        0.7        0.5        0.5        0.5        0.5        0.5
       0.5        0.5        0.5        0.5        0.5        0.5        0.5        0.5        0.5        0.5
       0.5        0.5        0.5        0.5        0.5        0.5        0.5        0.5        0.5        0.5
       0.5        0.5        0.5        0.5        0.5        0.5        0.5        0.5        0.5        0.5
       0.5        0.5        0.5
      28.2       33.7       43.0       53.8       64.9       72.9       79.7       82.6       82.8       80.2
      75.8       70.7       65.5       59.6       54.0       47.9       42.3       37.3       32.5       27.9
      23.4       19.6       15.8       12.8       11.0        9.1        7.5        5.9        4.8        3.8
       2.9        2.1        1.5        0.7        0.5        0.5        0.5        0.7        0.6        0.6
       0.5        0.6        0.5        0.5        0.5        0.6        0.6        0.5        0.6        0.5
       0.6        0.5        0.5        0.5        0.5        0.5        0.5        0.5        0.5        0.5
       0.5        0.5        0.5        0.5        0.5        0.5        0.5        0.5        0.5        0.5
       0.5        0.5        0.5
      28.2       33.3       42.8       54.2       66.5       78.3       84.8       87.5       88.4       87.2
      84.7       79.9       75.1       69.6       64.2       58.5       53.1       47.4       42.0       36.9
      32.3       27.8       23.6       20.1       16.3       13.3       11.0        9.3        7.9        7.1
       6.0        5.5        4.8        4.1        3.7        3.3        3.3        1.7        1.8        1.7
       1.6        1.7        1.3        1.5        1.2        1.3        1.3        1.2        1.2        1.0
       1.0        0.7        0.7        0.9        0.5        0.5        0.5        0.5        0.6        0.5
       0.5        0.6        0.5        0.5        0.5        0.5        0.5        0.5        0.5        0.5
       0.5        0.5        0.5
      28.2       32.3       41.3       51.3       61.6       69.4       75.3       77.9       79.2       79.2
      78.4       76.5       73.8       70.3       67.3       63.8       60.5       57.0       53.8       50.8
      48.0       45.1       42.8       40.3       38.4       36.4       34.9       34.0       33.4       33.0
      32.6       32.0       31.8       31.2       31.1       30.8       30.6       27.0       26.9       26.5
      26.3       26.0       25.5       25.0       24.4       23.6       22.8       22.2       21.1       20.5
      19.4       18.7       17.7       16.6       15.6       14.6       13.3       12.2       10.9        9.8
       8.3        7.2        5.9        5.2        4.0        2.8        2.3        1.5        0.9        0.5
       0.5        0.5        0.5
      28.2       30.7       36.2       43.0       50.2       56.0       59.8       62.2       63.4       63.9
      63.6       62.9       62.3       61.6       60.8       60.1       59.1       57.8       57.0       56.1
      55.3       54.5       53.5       53.3       53.2       53.2       53.4       53.5       53.7       54.0
      54.1       54.2       54.1       54.1       53.9       54.0       54.0       54.7       54.6       54.1
      53.6       53.0       52.1       51.2       50.2       49.2       47.9       46.6       45.2       43.7
      42.0       40.5       38.8       36.7       34.8       32.8       30.8       28.7       26.1       24.0
      21.5       19.4       17.0       14.7       12.0       10.0        7.5        5.5        3.4        2.0
       0.9        0.6        0.5
