IESNA:LM-63-2002
[TEST]P13233
[TESTLAB]PEACHTREE CITY
[ISSUEDATE]04/09/12
[MANUFAC]COOPER LIGHTING - PORTFOLIO
[LUMCAT]CSQ6226E-6CSQWW1H
[LUMINAIRE]PORTFOLIO 6 INCH SQUARE 2 LAMP CFL 55 DEGREE CUTOFF RECESSED WALL WASH LUMINAIRE
[MORE]WITH SEMI-SPECULAR CLEAR TRIM
[_MOUNTING]RECESSED
TILT=NONE
2 1800 1 37 23 1 1 0.5 0.5 0
1 1 52.1
0 2.5 5 7.5 10 12.5 15 17.5 20 22.5
25 27.5 30 32.5 35 37.5 40 42.5 45 47.5
50 52.5 55 57.5 60 62.5 65 67.5 70 72.5
75 77.5 80 82.5 85 87.5 90
0 5 10 15 20 25 30 35 40 45
50 55 60 65 70 75 80 85 90 112.5
135 157.5 180
497 512 533 552 570 586 599 609 614 615
612 602 588 559 529 494 457 419 382 345
309 276 247 222 201 182 163 144 126 107
86 64 42 20 2 0 0
497 511 531 551 569 584 597 606 612 613
609 599 585 557 527 492 455 417 380 344
308 275 246 221 200 181 163 144 125 106
86 63 41 20 2 0 0
497 510 531 550 568 583 595 605 610 610
607 597 582 555 525 490 453 416 380 343
308 275 245 220 199 180 162 143 124 105
84 62 40 19 2 0 0
497 510 530 549 567 581 593 602 606 607
603 592 577 552 522 488 452 414 378 343
308 275 245 219 197 178 159 141 122 102
82 61 39 19 3 0 0
497 510 530 548 565 579 590 598 602 602
597 587 572 549 519 486 450 413 376 341
306 273 243 216 193 174 155 137 119 99
80 59 38 19 3 0 0
497 510 529 546 562 576 586 594 597 596
591 580 565 545 515 483 447 410 373 338
303 270 240 212 189 169 150 132 113 94
75 55 36 18 3 0 0
497 509 528 544 559 572 582 588 590 589
583 573 558 538 511 478 443 406 369 333
299 266 236 209 184 163 144 125 106 88
70 51 33 17 4 0 0
497 509 526 542 556 568 577 582 583 581
574 564 549 529 504 471 437 400 363 327
293 261 230 203 178 156 136 117 99 82
64 48 31 16 4 0 0
497 509 524 539 552 563 571 575 575 572
565 553 538 517 493 464 428 392 355 319
285 253 223 195 171 148 128 110 93 76
60 44 29 15 4 0 0
497 508 523 536 548 558 564 568 567 562
554 541 525 504 479 451 418 381 345 309
275 243 214 187 162 140 121 103 86 70
56 41 27 14 4 0 0
497 507 521 533 544 552 557 559 557 552
542 528 510 488 464 435 403 369 332 297
263 231 203 177 153 132 113 96 80 65
51 37 24 12 3 0 0
497 507 519 530 539 546 550 551 547 540
529 513 495 472 446 416 385 352 318 282
249 218 190 166 143 123 105 89 73 59
45 32 20 9 2 0 0
497 506 517 526 534 540 542 541 536 528
515 499 478 454 427 397 365 332 299 266
234 204 177 153 132 113 96 81 66 52
39 27 16 7 1 0 0
497 506 515 522 529 533 534 531 525 515
501 483 461 436 408 377 345 312 279 247
216 188 163 140 120 103 87 72 58 45
33 22 13 5 1 0 0
497 505 513 518 523 526 525 521 513 502
486 466 443 417 388 358 325 292 260 228
199 172 148 127 109 92 77 64 50 38
28 18 10 4 1 0 0
497 504 510 514 517 518 516 511 501 488
471 450 426 399 369 338 305 273 241 211
182 156 134 114 97 82 69 55 43 32
23 15 8 3 1 0 0
497 503 507 510 511 511 507 500 489 475
456 434 409 381 351 319 287 255 224 194
167 142 121 103 87 73 61 48 37 27
19 12 6 2 0 0 0
497 503 504 506 505 503 498 489 477 461
442 419 393 364 334 302 270 239 208 179
153 130 110 93 78 65 53 42 31 23
15 9 5 2 0 0 0
497 502 502 501 499 495 488 479 465 449
428 404 378 348 318 287 255 224 195 166
142 119 100 84 70 58 47 36 27 19
12 7 3 1 0 0 0
497 497 489 480 471 460 447 433 416 396
373 349 323 295 267 239 210 183 157 132
110 89 71 55 42 31 23 15 9 4
2 2 1 1 0 0 0
497 493 478 463 446 429 410 391 370 349
326 302 278 253 229 204 181 158 136 115
94 74 55 37 24 13 9 6 5 3
3 2 1 1 0 0 0
497 491 471 450 429 407 384 361 337 314
291 268 247 226 206 187 169 149 128 104
80 58 38 23 17 13 9 7 5 4
3 2 1 1 0 0 0
497 490 468 446 423 399 375 351 326 303
280 258 238 219 201 184 166 146 122 97
72 50 32 23 17 13 9 7 5 4
2 2 1 1 1 0 0
