IESNA:LM-63-2002
[TEST]P13231
[TESTLAB]PEACHTREE CITY
[ISSUEDATE]04/05/12
[MANUFAC]COOPER LIGHTING - PORTFOLIO
[LUMCAT]CSQ6218E-6CSQWW1LI
[LUMINAIRE]PORTFOLIO 6 INCH SQUARE 2 LAMP CFL 55 DEGREE CUTOFF RECESSED WALL WASH LUMINAIRE
[MORE]WITH SPECULAR CLEAR TRIM
[_MOUNTING]RECESSED
TILT=NONE
2 1200 1 37 23 1 1 0.5 0.5 0
1 1 36.2
0 2.5 5 7.5 10 12.5 15 17.5 20 22.5
25 27.5 30 32.5 35 37.5 40 42.5 45 47.5
50 52.5 55 57.5 60 62.5 65 67.5 70 72.5
75 77.5 80 82.5 85 87.5 90
0 5 10 15 20 25 30 35 40 45
50 55 60 65 70 75 80 85 90 112.5
135 157.5 180
392 403 416 428 438 446 453 456 457 456
451 443 431 412 391 368 343 317 290 261
234 208 184 162 144 126 110 95 80 66
52 38 24 11 1 0 0
392 402 415 427 437 445 451 455 456 454
449 441 430 411 390 367 342 316 289 260
234 207 183 162 143 126 110 95 80 65
52 37 24 11 1 0 0
392 402 415 426 436 444 451 454 455 452
447 439 428 409 388 365 340 314 287 260
234 207 184 162 143 126 110 94 80 64
50 36 23 10 1 0 0
392 402 414 425 435 443 449 451 452 449
444 435 423 405 384 361 337 312 285 258
233 207 183 161 142 125 109 93 78 63
48 35 22 10 1 0 0
392 402 414 424 434 441 446 449 448 445
439 430 418 401 380 357 333 308 282 256
231 205 181 160 140 123 107 91 75 61
47 34 21 10 1 0 0
392 401 413 423 432 439 443 445 444 440
433 424 411 396 374 352 328 303 277 252
227 202 179 157 138 120 104 87 72 58
44 32 20 10 1 0 0
392 401 412 422 430 436 439 441 439 435
427 417 405 389 369 346 322 297 272 246
223 198 175 154 134 116 99 83 68 55
42 30 19 9 2 0 0
392 401 412 420 427 432 435 436 433 428
420 409 397 381 362 339 315 290 265 240
216 193 170 150 129 111 94 79 64 51
39 27 17 9 2 0 0
392 401 410 418 425 429 431 430 427 421
412 401 387 371 352 331 306 282 257 232
209 186 164 143 124 105 89 74 60 48
36 25 16 8 2 0 0
392 400 409 416 422 425 426 424 420 413
404 392 377 361 342 321 298 272 248 223
200 178 156 136 117 100 84 70 57 45
34 23 15 7 2 0 0
392 399 407 414 418 421 421 418 413 406
395 382 367 349 330 309 287 263 237 213
190 168 147 128 110 94 79 65 53 41
31 21 13 6 1 0 0
392 399 406 411 415 416 415 412 405 397
385 371 356 337 317 296 274 250 226 202
179 157 137 119 102 87 73 60 48 37
27 18 11 4 1 0 0
392 398 404 409 411 411 409 405 398 388
375 361 344 325 304 282 259 236 213 190
168 146 127 109 94 80 67 54 43 33
23 15 9 3 0 0 0
392 398 402 406 407 406 403 398 389 379
365 349 332 312 291 268 245 222 199 176
155 134 116 99 85 71 59 48 37 28
20 12 7 3 0 0 0
392 397 401 403 403 401 397 391 381 369
355 338 320 299 277 254 231 208 185 162
142 122 105 89 75 63 52 42 32 24
17 10 5 2 0 0 0
392 397 399 400 399 396 391 384 373 360
345 327 308 287 264 241 218 194 172 150
130 110 93 78 66 55 46 37 28 20
14 8 4 1 0 0 0
392 396 398 397 395 391 385 377 365 351
335 317 297 275 252 229 205 182 160 138
118 99 83 70 59 49 40 32 24 17
11 7 3 1 0 0 0
392 395 395 394 391 386 379 370 358 343
325 306 286 264 241 217 194 171 148 127
108 90 75 63 52 44 36 28 21 15
9 5 3 1 0 0 0
392 395 394 391 387 381 373 363 350 335
317 297 277 254 231 208 184 161 139 118
99 82 69 57 47 39 31 24 17 12
8 4 2 1 0 0 0
392 391 385 378 368 358 346 334 318 301
282 262 242 221 199 176 154 133 114 96
80 64 51 39 30 22 16 10 5 2
1 0 0 0 0 0 0
392 389 377 366 352 338 322 306 290 272
254 236 218 198 179 160 142 125 108 92
75 57 39 23 13 6 3 2 1 1
1 1 0 0 0 0 0
392 387 373 358 341 323 305 287 270 253
237 222 208 193 177 161 146 130 111 83
55 34 19 8 5 4 3 2 1 1
1 1 0 0 0 0 0
392 386 371 354 337 318 299 281 264 247
232 219 207 193 181 167 152 134 103 69
43 25 10 6 4 3 2 2 1 1
0 0 0 0 0 0 0
