IESNA:LM-63-2002
[TEST]P13232
[TESTLAB]PEACHTREE CITY
[ISSUEDATE]04/09/12
[MANUFAC]COOPER LIGHTING - PORTFOLIO
[LUMCAT]CSQ6226E-6CSQWW1LI
[LUMINAIRE]PORTFOLIO 6 INCH SQUARE 2 LAMP CFL 55 DEGREE CUTOFF RECESSED WALL WASH LUMINAIRE
[MORE]WITH SPECULAR CLEAR TRIM
[_MOUNTING]RECESSED
TILT=NONE
2 1800 1 37 23 1 1 0.5 0.5 0
1 1 52.2
0 2.5 5 7.5 10 12.5 15 17.5 20 22.5
25 27.5 30 32.5 35 37.5 40 42.5 45 47.5
50 52.5 55 57.5 60 62.5 65 67.5 70 72.5
75 77.5 80 82.5 85 87.5 90
0 5 10 15 20 25 30 35 40 45
50 55 60 65 70 75 80 85 90 112.5
135 157.5 180
588 603 630 644 657 674 685 695 695 692
685 672 646 625 593 557 513 480 433 390
349 309 272 242 214 187 163 142 123 100
77 58 37 18 0 0 0
588 601 625 643 656 672 682 691 690 689
683 670 643 622 591 553 515 476 431 389
347 308 271 240 214 184 163 140 117 98
77 57 35 17 1 0 0
588 600 623 641 657 670 680 685 688 687
683 666 638 619 590 551 509 474 430 392
346 309 274 238 213 187 162 140 117 97
76 55 34 17 1 0 0
588 601 621 640 652 668 677 682 684 682
674 660 635 614 583 545 505 468 425 387
345 308 271 238 212 183 160 138 113 94
74 52 32 16 0 0 0
588 601 621 642 650 666 674 679 679 677
667 653 624 607 579 540 499 464 422 386
343 305 269 236 209 181 157 135 109 92
71 50 32 15 2 0 0
588 601 620 636 647 664 668 672 671 669
658 645 615 599 571 533 492 458 416 379
337 303 265 232 204 175 152 129 105 86
66 47 29 15 1 0 0
588 600 620 634 644 657 663 668 663 659
649 633 604 590 560 523 483 448 407 370
331 296 260 227 200 170 145 122 99 81
63 45 28 14 2 0 0
588 599 619 631 640 652 657 658 655 648
638 620 591 577 548 513 473 439 398 364
322 290 253 220 192 163 139 116 92 76
59 41 26 14 2 0 0
588 599 617 627 635 646 650 649 646 637
626 607 579 561 534 501 463 427 387 350
314 277 243 212 184 154 132 109 85 70
55 38 22 12 2 0 0
588 598 614 625 632 641 642 640 634 624
615 594 562 544 521 486 446 412 376 336
299 267 233 201 175 147 123 102 80 66
49 34 20 12 2 0 0
588 597 611 621 626 634 633 631 624 612
598 579 547 527 503 466 429 397 360 321
284 253 221 188 164 138 116 95 75 61
46 30 18 9 1 1 0
588 595 608 618 619 629 625 619 612 600
584 561 526 508 480 446 409 379 341 305
267 236 204 175 152 128 107 88 67 55
40 26 14 7 1 0 0
588 596 607 613 614 619 616 609 598 585
568 544 511 489 459 424 387 356 319 286
250 218 188 162 139 116 97 81 61 48
34 22 12 5 0 0 0
588 594 604 609 609 612 607 598 586 576
551 526 489 469 437 403 364 334 299 264
230 201 172 145 125 103 86 70 50 41
28 18 9 3 0 1 0
588 594 601 606 602 605 597 587 573 561
535 509 471 449 417 382 343 314 278 243
211 182 154 129 111 91 75 61 45 35
25 15 7 3 0 0 0
588 592 598 603 597 596 588 575 561 542
519 493 453 429 397 362 323 292 256 224
191 166 137 115 97 80 66 52 37 30
21 12 5 2 0 0 0
588 592 595 595 589 589 579 564 548 529
504 475 435 411 379 342 302 273 237 207
174 149 122 102 87 71 59 46 31 26
15 9 5 1 0 1 0
588 591 596 591 583 581 569 557 536 518
489 459 421 393 362 324 286 256 220 191
159 132 110 91 78 62 53 40 26 21
14 8 2 1 0 0 0
588 589 589 586 576 572 558 542 524 501
475 445 407 380 345 309 274 241 205 176
146 123 100 83 69 55 46 34 22 17
10 6 1 1 0 0 0
588 583 577 564 548 535 517 497 474 448
422 391 350 326 295 261 226 198 168 142
117 94 74 56 44 30 21 14 4 2
1 1 1 1 0 0 0
588 580 565 544 521 503 478 455 429 402
378 348 312 292 265 236 208 185 159 138
109 83 56 33 20 7 3 3 1 2
3 0 0 0 0 0 0
588 578 557 534 504 480 453 425 400 376
352 329 297 284 261 238 211 191 162 120
76 49 25 10 8 4 5 3 1 2
2 1 0 1 1 0 0
588 577 553 528 500 471 442 415 389 372
344 323 295 283 270 245 219 196 145 97
59 34 12 8 6 3 6 1 0 1
1 1 0 0 0 0 0
