IESNA:LM-63-2002
[TEST]P13230
[TESTLAB]PEACHTREE CITY
[ISSUEDATE]04/05/12
[MANUFAC]COOPER LIGHTING - PORTFOLIO
[LUMCAT]CSQ6218E-6CSQWW1H
[LUMINAIRE]PORTFOLIO 6 INCH SQUARE 2 LAMP CFL 55 DEGREE CUTOFF RECESSED WALL WASH LUMINAIRE
[MORE]WITH SEMI-SPECULAR CLEAR TRIM
[_MOUNTING]RECESSED
TILT=NONE
2 1200 1 37 23 1 1 0.5 0.5 0
1 1 36.2
0 2.5 5 7.5 10 12.5 15 17.5 20 22.5
25 27.5 30 32.5 35 37.5 40 42.5 45 47.5
50 52.5 55 57.5 60 62.5 65 67.5 70 72.5
75 77.5 80 82.5 85 87.5 90
0 5 10 15 20 25 30 35 40 45
50 55 60 65 70 75 80 85 90 112.5
135 157.5 180
330 340 353 366 377 388 396 401 405 406
403 398 387 369 349 326 302 279 254 230
208 186 166 149 136 123 110 98 85 72
58 43 28 13 2 0 0
330 340 353 366 377 387 395 401 404 405
403 397 386 368 349 326 302 278 254 230
207 186 166 149 135 122 110 98 85 72
58 43 27 13 2 0 0
330 340 353 365 377 386 394 400 403 403
401 395 384 367 347 325 301 277 253 230
207 185 166 149 135 122 110 97 84 71
57 42 27 13 1 0 0
330 340 353 364 375 385 393 398 401 401
398 392 381 365 345 323 299 276 252 229
206 184 165 147 133 120 108 95 83 69
55 41 26 13 2 0 0
330 339 352 364 374 384 391 396 398 397
395 388 377 363 343 321 297 274 250 227
205 183 163 145 130 117 105 93 80 67
54 40 25 13 2 0 0
330 339 351 362 373 381 388 392 394 393
390 383 373 360 340 318 295 272 248 225
203 181 161 143 128 114 102 89 77 64
51 37 24 12 2 0 0
330 339 350 361 371 379 385 389 390 389
385 378 368 355 337 315 293 269 245 222
200 178 159 140 124 110 97 85 72 60
47 35 23 11 3 0 0
330 338 349 359 369 376 381 385 385 384
379 372 362 349 333 311 288 264 241 217
196 174 155 137 120 105 92 80 67 55
44 32 21 11 3 0 0
330 338 348 358 366 373 378 380 380 378
372 365 354 341 325 306 283 259 235 212
190 169 150 132 115 101 87 75 63 52
41 30 20 10 3 0 0
330 338 347 356 363 369 373 375 374 371
365 357 346 332 316 298 277 253 228 205
183 162 144 126 110 95 82 70 59 48
38 28 19 10 3 0 0
330 337 346 354 360 366 369 370 368 364
357 348 336 322 306 287 267 245 220 197
175 155 136 119 104 90 77 65 54 44
35 26 17 8 2 0 0
330 337 344 351 357 361 364 364 361 356
349 339 326 311 294 275 254 233 211 187
166 146 128 111 97 84 72 60 50 40
31 22 14 6 1 0 0
330 336 343 349 354 357 358 358 354 348
340 329 315 300 282 262 241 220 198 177
156 137 119 103 89 77 66 55 45 35
26 19 11 5 1 0 0
330 336 341 346 350 353 353 351 347 340
330 318 304 288 269 249 228 207 185 164
145 126 110 94 81 69 59 49 39 30
22 15 9 4 1 0 0
330 335 339 344 346 348 347 345 339 331
320 308 292 275 256 236 215 194 172 152
133 115 99 85 73 63 53 43 34 26
19 12 7 3 0 0 0
330 334 338 341 342 343 341 337 331 322
311 297 281 263 244 223 202 181 160 140
122 105 90 77 66 56 47 38 29 22
15 10 6 2 0 0 0
330 334 336 338 338 338 335 330 323 314
301 287 270 251 232 211 190 169 149 130
112 95 82 69 59 50 41 33 25 18
12 8 4 2 0 0 0
330 333 334 335 334 333 329 323 315 305
292 277 259 241 221 200 179 158 138 119
103 87 74 62 53 44 36 29 21 15
10 6 3 1 0 0 0
330 332 332 332 330 327 323 316 308 296
283 267 250 231 211 190 170 149 129 111
95 80 68 57 47 39 32 25 18 13
8 5 2 1 0 0 0
330 329 324 318 311 304 296 287 275 262
247 231 214 196 177 158 139 122 104 88
73 60 48 37 28 21 16 10 6 3
2 1 1 0 0 0 0
330 327 316 306 295 284 272 259 246 231
217 201 185 168 152 134 120 105 90 77
63 49 36 25 16 9 6 4 3 2
2 1 1 0 0 0 0
330 325 312 298 284 270 255 240 224 209
193 179 164 151 138 125 112 100 85 69
54 38 26 16 12 9 6 5 3 3
2 1 1 1 0 0 0
330 324 310 296 280 264 249 234 217 201
186 172 158 146 135 123 111 97 82 64
49 33 21 16 11 8 6 5 3 2
1 1 1 0 0 0 0
