IESNA:LM-63-2002
[TEST]P13212
[TESTLAB]PEACHTREE CITY
[ISSUEDATE]03/22/12
[MANUFAC]COOPER LIGHTING - PORTFOLIO
[LUMCAT]CSQ6226E-6CSQWW1H
[LUMINAIRE]PORTFOLIO 6 INCH SQUARE 2 LAMP CFL 55 DEGREE CUTOFF RECESSED WALL WASH LUMINAIRE
[MORE]WITH SEMI-SPECULAR CLEAR TRIM
[_MOUNTING]RECESSED
TILT=NONE
2 1710 1 37 23 1 1 0.5 0.5 0
1 1 43
0 2.5 5 7.5 10 12.5 15 17.5 20 22.5
25 27.5 30 32.5 35 37.5 40 42.5 45 47.5
50 52.5 55 57.5 60 62.5 65 67.5 70 72.5
75 77.5 80 82.5 85 87.5 90
0 5 10 15 20 25 30 35 40 45
50 55 60 65 70 75 80 85 90 112.5
135 157.5 180
291 299 308 316 323 330 334 337 337 335
331 323 312 299 284 265 245 225 205 187
169 153 140 128 118 107 96 85 73 61
47 33 19 6 0 0 0
291 300 309 317 325 331 336 338 339 336
332 324 313 301 285 267 246 226 206 188
170 154 140 129 118 107 96 85 73 61
47 33 19 6 0 0 0
291 298 307 315 322 329 333 336 336 333
329 321 311 298 283 265 245 224 205 186
169 153 139 128 117 106 96 84 72 60
47 32 18 6 0 0 0
291 299 308 316 323 329 333 336 336 333
329 321 311 297 283 265 245 225 205 187
169 153 139 126 116 105 94 83 71 59
46 32 18 6 0 0 0
291 299 307 315 321 327 331 333 333 330
326 318 308 295 281 263 244 224 204 185
168 152 137 124 113 103 92 80 69 57
44 31 18 6 0 0 0
291 298 306 313 320 325 329 331 331 328
323 316 306 293 278 262 243 222 202 183
166 149 134 121 110 99 88 77 65 54
42 29 17 6 1 0 0
291 297 304 311 317 322 325 327 326 324
319 311 301 289 274 257 239 219 199 180
162 146 131 117 105 94 83 72 61 50
39 27 16 7 0 0 0
291 297 304 311 316 321 324 325 325 322
317 309 299 286 271 254 236 217 197 177
159 143 127 113 101 90 79 68 57 46
36 26 15 6 1 0 0
291 296 303 309 314 318 320 321 320 317
312 304 293 280 265 248 230 212 192 173
155 138 123 108 96 84 74 63 53 43
33 24 14 6 1 0 0
291 296 302 308 313 316 318 319 317 314
308 299 288 274 259 243 224 206 188 169
151 134 118 104 91 80 69 59 49 40
31 22 13 6 1 0 0
291 297 303 308 312 315 316 316 314 310
303 294 282 268 253 236 219 201 182 164
147 130 114 100 87 75 64 55 45 36
28 20 12 5 1 0 0
291 295 300 305 308 311 311 311 308 303
295 285 273 259 244 227 210 193 175 157
140 124 108 94 81 70 59 50 41 33
25 17 10 4 1 0 0
291 296 300 304 307 309 309 307 304 298
290 279 266 251 236 219 202 185 168 150
133 117 102 88 75 64 54 45 37 29
21 14 8 3 0 0 0
291 296 299 302 305 306 305 303 299 292
282 271 257 243 227 210 193 176 159 142
125 110 94 80 69 58 49 40 32 25
18 12 6 2 0 0 0
291 294 297 300 301 302 301 298 293 285
275 262 249 234 218 201 184 167 150 133
117 101 87 73 62 52 43 35 28 21
15 10 5 2 0 0 0
291 293 296 297 298 298 296 293 287 278
267 254 240 225 209 191 175 158 140 124
108 92 78 66 55 46 38 31 24 18
13 8 4 1 0 0 0
291 294 296 297 297 296 293 289 282 273
262 248 233 217 201 184 167 150 132 116
100 85 72 60 50 42 34 27 21 15
11 7 3 1 0 0 0
291 294 295 295 295 293 290 285 278 268
256 242 227 210 193 176 159 141 125 108
93 78 66 54 45 37 30 24 18 13
9 5 3 1 0 0 0
291 292 292 292 290 288 285 279 271 261
248 234 219 202 185 168 151 134 117 101
86 72 60 49 41 33 27 20 15 11
7 4 2 1 0 0 0
291 290 287 283 278 273 267 259 250 239
226 211 196 179 163 146 129 113 98 83
70 57 45 35 27 19 14 10 6 3
1 1 1 1 0 0 0
291 289 282 274 267 258 249 238 227 215
201 187 172 157 142 127 113 99 85 72
60 48 36 25 17 9 6 4 3 2
2 1 1 1 0 0 0
291 287 278 269 258 247 234 221 207 193
179 166 152 140 128 116 105 93 81 67
53 39 27 16 12 8 6 5 3 2
2 1 1 1 0 0 0
291 286 276 265 254 241 227 213 199 185
171 158 146 134 124 113 103 92 78 63
49 35 23 16 12 8 6 4 3 2
2 1 1 1 0 0 0
