IESNA:LM-63-2002
[TEST]P13211
[TESTLAB]PEACHTREE CITY
[ISSUEDATE]03/21/12
[MANUFAC]COOPER LIGHTING - PORTFOLIO
[LUMCAT]CSQ6226E-6CSQWW1LI
[LUMINAIRE]PORTFOLIO 6 INCH SQUARE 2 LAMP CFL 55 DEGREE CUTOFF RECESSED WALL WASH LUMINAIRE
[MORE]WITH SPECULAR CLEAR TRIM
[_MOUNTING]RECESSED
TILT=NONE
2 1710 1 37 23 1 1 0.375 0.375 0
1 1 43
0 2.5 5 7.5 10 12.5 15 17.5 20 22.5
25 27.5 30 32.5 35 37.5 40 42.5 45 47.5
50 52.5 55 57.5 60 62.5 65 67.5 70 72.5
75 77.5 80 82.5 85 87.5 90
0 5 10 15 20 25 30 35 40 45
50 55 60 65 70 75 80 85 90 112.5
135 157.5 180
348 356 364 371 376 380 382 384 383 381
377 370 360 347 331 311 288 264 239 215
193 172 153 137 123 108 94 82 69 56
43 30 18 6 0 0 0
348 355 363 370 375 379 381 382 382 379
375 368 358 345 330 310 287 263 238 215
192 172 153 137 122 108 94 81 68 55
43 30 17 6 0 0 0
348 355 363 369 375 378 381 382 381 379
374 367 357 344 329 309 286 262 238 215
193 172 154 137 123 108 94 81 68 54
41 29 17 6 0 0 0
348 355 363 370 374 378 380 381 379 377
372 365 355 342 326 307 286 262 238 215
193 172 153 137 122 107 93 80 66 53
40 28 16 6 0 0 0
348 355 362 369 373 376 378 378 377 374
369 361 351 338 322 304 283 260 236 213
192 171 152 135 120 105 91 78 64 51
39 27 16 6 0 0 0
348 356 364 370 374 377 378 378 376 373
367 359 349 336 320 302 281 258 235 212
190 169 150 133 118 103 89 75 62 49
37 26 15 6 0 0 0
348 355 362 368 372 374 375 375 372 368
362 354 343 330 313 295 275 253 230 207
186 165 146 129 114 99 84 71 58 46
34 24 14 6 0 0 0
348 356 363 368 372 374 374 373 370 365
358 349 338 324 308 289 269 248 225 203
182 162 143 126 110 94 80 67 55 43
32 22 13 6 1 0 0
348 356 362 367 370 371 371 370 366 360
352 342 330 316 300 281 261 241 220 198
177 157 139 121 105 89 75 63 51 40
30 21 12 5 1 0 0
348 355 361 365 368 368 367 365 361 354
346 335 321 307 290 272 252 232 212 191
171 152 133 115 99 84 71 59 48 37
28 19 11 5 1 0 0
348 355 360 364 366 366 364 361 356 349
339 327 313 298 281 263 244 224 204 184
165 145 127 109 94 80 66 55 45 35
25 17 10 4 0 0 0
348 354 358 361 363 362 360 355 349 341
330 317 302 286 269 251 233 213 194 174
155 136 118 102 87 73 61 50 40 31
22 14 8 3 0 0 0
348 352 356 358 359 359 356 351 343 334
322 308 293 276 259 240 222 203 184 165
146 128 110 94 80 67 56 45 36 27
19 12 6 2 0 0 0
348 351 355 357 357 356 352 346 338 328
315 300 284 267 249 230 212 193 174 155
137 119 101 86 72 60 49 40 31 23
16 10 5 2 0 0 0
348 352 354 356 355 353 349 343 334 322
308 293 276 258 240 221 202 182 163 145
126 109 92 77 64 53 43 35 27 20
14 8 4 1 0 0 0
348 351 353 353 352 350 345 338 328 316
301 285 267 249 230 211 192 172 153 134
116 99 82 68 56 47 38 30 23 17
11 7 3 1 0 0 0
348 351 351 351 350 346 341 333 322 310
294 277 259 241 221 202 182 162 143 124
106 89 74 60 50 42 34 27 20 14
10 6 3 1 0 0 0
348 348 348 347 345 341 335 327 315 302
286 269 251 232 212 192 173 153 134 115
97 80 66 55 45 37 29 23 17 12
8 5 2 1 0 0 0
348 349 349 347 344 339 332 323 312 298
281 264 245 226 206 186 166 146 126 108
90 75 61 50 41 33 26 20 15 10
7 4 2 0 0 0 0
348 348 344 338 331 323 314 303 289 274
257 239 220 201 181 161 142 123 105 89
74 60 47 36 27 20 14 9 5 2
1 1 0 0 0 0 0
348 346 338 328 318 306 292 278 263 247
231 215 198 181 164 146 130 114 99 85
70 55 37 23 14 7 3 2 2 1
1 1 0 0 0 0 0
348 345 334 321 307 292 275 259 243 228
213 200 186 174 160 146 133 119 103 79
53 34 20 8 5 4 2 2 2 1
1 1 0 0 0 0 0
348 342 330 317 301 285 268 251 235 221
207 194 183 172 161 150 138 123 98 66
42 26 11 6 4 3 2 2 1 1
1 0 0 0 0 0 0
