IESNA:LM-63-2002
[TEST]P13216
[TESTLAB]PEACHTREE CITY
[ISSUEDATE]03/29/12
[MANUFAC]COOPER LIGHTING - PORTFOLIO
[LUMCAT]CSQ4118E-4CSQWW1H
[LUMINAIRE]PORTFOLIO 4 INCH SQUARE CFL 55 DEGREE CUTOFF RECESSED DOWN LIGHT LUMINAIRE
[MORE]WITH SEMI-SPECULAR CLEAR TRIM
[_MOUNTING]RECESSED
TILT=NONE
1 1200 0.1 37 23 1 1 0.375 0.375 0
1 1 20.5
0 2.5 5 7.5 10 12.5 15 17.5 20 22.5
25 27.5 30 32.5 35 37.5 40 42.5 45 47.5
50 52.5 55 57.5 60 62.5 65 67.5 70 72.5
75 77.5 80 82.5 85 87.5 90
0 5 10 15 20 25 30 35 40 45
50 55 60 65 70 75 80 85 90 112.5
135 157.5 180
155.9 161 167.3 173.4 178.2 182.2 185.1 187 186.9 185.8
182.8 178.4 169.6 158.9 147.5 136.2 125.4 114.9 105 95.6
86.9 79.8 73.5 67.5 61.5 54.6 47.2 40 32.4 25.4
18.3 12 6.8 3.6 1.1 0 0
155.9 160.9 167.2 173.1 178.1 182.2 185 186.7 186.8 186
182.7 178.3 169.6 158.8 147.7 136.2 125.2 114.7 104.9 95.6
86.8 79.5 73.3 67.7 61.5 54.3 47.2 40.1 32.5 25.5
18.3 11.8 6.9 3.5 0.5 0 0
155.9 160.9 167.3 173.1 177.9 182 184.8 186.5 186.6 185.3
182.4 178 169.7 159 147.7 136.2 125 114.7 104.9 95.6
86.7 79.2 72.9 66.9 61.1 54 47 39.9 32.3 25.3
18.3 11.8 6.6 3.5 0.4 0 0
155.9 160.9 167 172.8 177.7 181.6 184.3 186 185.9 184.7
181.6 177.1 169.7 159 147.5 136 125 114.3 104.6 95.1
86.2 78.5 72.1 66.2 60.4 54.1 46.9 39.8 32.2 25.3
18.4 11.8 6.5 3.3 0.8 0 0
155.9 160.7 166.8 172.4 177.2 181 183.8 185.3 185.3 183.9
180.7 176.2 169.8 159.1 147.8 136.3 125.1 114.1 104.3 94.9
85.9 78.1 71.4 65.3 59.6 53.7 46.4 39.4 32.1 25.1
18.3 11.8 6.4 3.3 0.6 0 0
155.9 160.7 166.5 171.9 176.7 180.7 183.1 184.5 184.2 183
179.7 175 169.3 159.3 148.1 136.5 125 113.9 103.8 94.5
85.6 77.4 70.4 64.4 58.3 52.7 45.6 38.6 31.4 24.6
17.8 11.7 6.4 3.2 0.6 0.1 0
155.9 160.5 166.3 171.4 175.9 179.6 182.1 183.6 183.1 181.7
178.5 173.6 167.9 159.4 148.1 136.4 124.7 113.6 103.3 93.5
84.5 76.5 69 62.3 56.4 50.7 44.2 37.2 30.3 23.7
17.2 11.5 6.6 3.2 0.7 0 0
155.9 160.3 165.7 170.9 175.2 178.8 181 182.2 181.7 180.2
176.8 172 166.1 158.7 148.2 136.3 124.4 112.7 102.2 92.4
83.2 74.7 67.3 60.8 54.3 48.3 42.5 35.7 29.2 22.8
16.6 11.2 6.6 3.2 0.8 0 0
155.9 160.1 165.1 170 174.2 177.5 179.7 180.6 180 178.6
174.8 169.8 163.8 156.1 147.3 135.3 123.3 111.6 100.7 90.7
81.5 73.1 65.5 58.8 52.2 46.4 40.6 34.4 28 22.2
16.1 11 6.7 3.1 0.9 0.1 0
155.9 159.9 164.6 169.1 173.1 176.2 178.2 178.9 178.2 176.2
172.4 167.1 160.8 153 144.3 133.8 121.8 110.1 99.1 88.9
79.7 71.3 64 56.9 50.5 44.7 39 33.1 27.2 21.4
15.9 11 6.7 3.1 0.9 0.1 0
155.9 159.6 163.9 168.2 171.9 174.9 176.5 177 176.1 173.7
169.7 164.3 157.3 149.4 140.2 130.5 119.7 108.1 97.3 87.3
78 69.7 62.4 55.7 49 43 37.4 31.6 26.3 20.6
15.5 10.6 6.5 3 0.8 0.1 0
155.9 159.3 163.2 167.2 170.6 173.2 174.7 174.9 173.5 171.2
166.6 160.6 153.6 145.3 136 126.3 116.1 105.6 95 85.1
76 67.8 60.9 54 47.7 41.6 35.9 30.1 24.6 19.6
14.4 9.7 6 2.6 0.6 0 0
155.9 159.2 162.7 166.1 169.2 171.5 172.6 172.6 170.9 167.9
163.3 156.8 149.6 140.9 131.5 121.5 111.4 101.5 92 82.6
73.7 65.8 58.6 51.9 45.7 39.8 34.3 28.5 23 17.9
12.9 8.7 4.9 2.2 0.5 0.1 0
155.9 158.7 161.8 164.9 167.5 169.4 170.2 170 167.8 164.6
159.4 152.8 145.1 136.3 126.7 116.8 106.7 97 87.6 78.9
70.8 63 56.3 49.6 43.5 37.7 32.1 26.3 20.7 16
11.3 7.3 3.3 1.7 0.4 0 0
155.9 158.5 161 163.7 166 167.4 167.9 167.2 164.7 161.4
155.6 148.6 140.6 131.7 122 112.2 102.1 92.3 83.3 74.6
66.8 59.7 52.9 46.7 40.9 35 29.2 23.8 18.2 13.8
9.4 6.2 3.6 1.4 0.4 0 0
155.9 158.3 160.2 162.3 164.1 165.1 165.3 164.1 161.4 157.4
151.5 144.3 136.2 127.1 117.4 107.4 97.9 88 79 70.5
62.6 55.8 49.2 43 37.3 31.6 26.1 20.7 15.7 11.7
8.1 5.1 2.8 1.2 0.2 0 0
155.9 157.9 159.3 160.8 162.1 162.8 162.5 161 157.8 153.3
147.3 140 131.9 122.6 112.9 103.1 93.2 83.9 75 66.6
58.9 51.7 45.3 39.4 33.9 28.2 23 17.9 13.6 9.8
6.8 4.2 2.3 1 0.2 0 0
155.9 157.7 158.5 159.4 160.2 160.5 159.5 157.7 154.2 149.5
143.3 135.7 127.4 118.3 108.7 98.8 89.2 79.7 71 62.7
55 48.3 41.8 36.3 30.4 25.5 20.4 15.8 11.6 8.5
5.7 3.5 2.1 0.8 0.3 0.1 0
155.9 157.3 157.4 157.9 158.1 157.7 156.5 154.3 150.4 145.5
139.1 131.5 123.2 114.1 104.4 94.7 85.2 75.8 67.2 59.1
51.5 44.4 38.4 32.7 27.6 22.6 18.2 13.9 10.3 7.3
4.8 2.8 1.6 0.6 0.2 0.1 0
155.9 155.7 153.2 150.8 148.3 145.5 141.8 138 132.9 127.2
120.6 113.2 105.4 97.1 88.2 79.4 70.5 61.9 53.8 46.1
39.1 32.4 26.5 21.2 16.7 12.8 9.7 6.6 4.2 2.4
1.1 0.7 0.6 0.3 0.1 0.1 0
155.9 154.5 149.5 144.3 139.2 133.7 127.8 121.6 115.1 108.5
101.5 94.2 87.2 80 72.9 65.7 58.6 51.6 45.2 38.5
32.2 26.1 20.5 15.1 10.6 6.9 4.3 3.3 2.2 1.7
1.2 0.8 0.6 0.4 0.2 0.1 0
155.9 153.6 146.7 139.9 132.6 125.2 117.6 109.8 102.3 95
88.2 81.4 75.4 69.5 63.8 58.4 52.8 47.1 41.4 35.5
29.1 22.7 16.8 11.4 8.3 6.1 4.8 3.5 2.6 1.9
1.5 1 0.8 0.6 0.2 0.1 0
155.9 153.4 145.8 138.3 130.2 122.3 113.9 105.9 98 90.8
84.3 77.8 72.2 67 62.2 57.1 52.1 46.8 41.1 34.9
28.3 21.3 15.4 10.9 8.3 6.4 4.9 3.8 2.4 2
1.2 0.9 0.8 0.5 0.3 0.1 0
