IESNA:LM-63-2002
[TEST]P13215
[TESTLAB]PEACHTREE CITY
[ISSUEDATE]03/29/12
[MANUFAC]COOPER LIGHTING - PORTFOLIO
[LUMCAT]CSQ4118E-4CSQWW1LI
[LUMINAIRE]PORTFOLIO 4 INCH SQUARE CFL 55 DEGREE CUTOFF RECESSED DOWN LIGHT LUMINAIRE
[MORE]WITH SPECULAR CLEAR TRIM
[_MOUNTING]RECESSED
TILT=NONE
1 1200 0.1 37 23 1 1 0.375 0.375 0
1 1 20.5
0 2.5 5 7.5 10 12.5 15 17.5 20 22.5
25 27.5 30 32.5 35 37.5 40 42.5 45 47.5
50 52.5 55 57.5 60 62.5 65 67.5 70 72.5
75 77.5 80 82.5 85 87.5 90
0 5 10 15 20 25 30 35 40 45
50 55 60 65 70 75 80 85 90 112.5
135 157.5 180
164.1 170 177.6 184.2 189.9 193.9 196.6 196.7 196.4 194.3
190.5 185 176.3 165.1 153.4 141.7 130.2 119.6 109.2 99.5
90.3 82.7 76.1 70.1 64.4 57.5 50 42.7 35 27.5
20.6 13.8 8 4.5 1 0.1 0
164.1 170 177.9 184.5 189.8 193.7 196.1 197.1 196.3 194
190.3 185 176.1 165.2 153.3 141.4 130.1 119.5 109.2 99.1
90.5 82.6 76 70 64.4 57.6 50 42.5 35 27.5
20.2 13.5 8 4.4 1 0.1 0
164.1 169.9 177.4 184 189.4 193.5 195.8 196.4 195.8 193.7
189.8 184.2 176 164.9 153.1 141.4 130.2 119.2 109.3 99.1
90.3 82.5 75.7 69.8 64 57.5 50.1 42.5 34.8 27.4
20.2 13.4 7.7 4.3 0.9 0 0
164.1 169.6 177 183.6 189.1 193 195.4 195.7 195.2 193.1
189.1 183.5 175.7 164.8 153.2 141.3 129.8 119.1 109 98.9
90.2 82 75.3 69.5 63.5 57.3 50.1 42.5 34.7 27.3
20.3 13.4 7.7 4.1 1.1 0.1 0
164.1 169.5 176.8 183.3 188.6 192.4 194.9 195.2 194.7 192.3
188.5 182.9 175.6 164.8 153.4 141.4 129.8 118.9 108.5 98.6
89.9 81.9 74.9 68.7 62.9 57.3 49.9 42.3 34.7 27.2
19.9 13.3 7.5 3.9 1.2 0.1 0
164.1 169.4 176.7 182.6 187.8 191.8 194.2 194.4 194 191.6
187.6 182.1 175 165 153.4 141.4 129.8 118.5 107.9 98.1
89.4 81.1 73.9 67.7 61.7 55.6 49.1 41.4 34.1 26.5
19.5 13 7.4 3.7 1.1 0 0
164.1 169.1 176 182 187.1 190.9 193.3 193.4 193 190.5
186.5 181 173.7 164.6 153.3 141.3 129.1 117.8 107 97
88.1 79.7 72.6 65.8 59.6 53.7 47.4 40.1 32.9 25.6
18.8 12.7 7.4 3.7 1.2 0 0
164.1 169 175.6 181.3 186 189.8 192.2 192.4 191.9 189.4
185.1 179.4 172.2 163.4 152.6 140.5 128.3 116.7 105.6 95.4
86.4 78.1 70.5 64.1 57.4 51.3 45.3 38.6 31.5 24.5
17.9 12.2 7.3 3.7 1.2 0.1 0
164.1 168.8 175.2 180.3 185 188.5 190.9 191 190.4 187.6
183.2 177.6 169.9 161.1 150.8 139.1 126.8 115.2 103.9 93.5
84.4 76.3 68.6 61.8 55.3 49.3 43.2 36.8 29.9 23.5
17.3 11.9 7.3 3.5 1.2 0.1 0
164.1 168.6 174.2 179.4 183.8 187.1 189.3 189.4 188.6 185.6
181.2 174.7 166.9 158 148.2 137 125 113.3 102.1 91.4
82.4 74.2 66.8 60 53.8 47.4 41.2 35 28.6 22.3
16.6 11.7 7.1 3.5 1.1 0.1 0
164.1 168.3 173.5 178.3 182.4 186 187.4 187.4 186.3 183.5
178.1 171.6 163.5 154.3 144.7 133.7 122.2 110.9 99.8 89.4
80.5 72.3 65 58.8 52.1 45.5 39.3 33.1 26.8 21.1
15.6 11.1 6.7 3.2 1 0.1 0
164.1 168 173 177.1 180.9 183.7 185.4 185 184 180.4
174.9 168.1 159.8 150.4 140.1 129.4 118.5 107.9 97.3 87.2
78.4 70.2 63.1 56.7 50 43.6 37.2 31 25.1 19.7
14.5 10 5.9 2.5 0.7 0.1 0
164.1 167.7 171.9 176.1 179.1 181.6 182.9 182.3 180.8 177.3
171.3 164.2 155.8 146 135.7 124.8 114.2 103.9 94 84.2
75.8 67.7 60.6 54.2 47.4 41 34.9 28.9 23.1 17.8
12.8 8.5 4.8 2.1 0.5 0 0
164.1 167.4 171 174.3 177.3 179.4 180.5 179.3 177.3 173.2
167.3 160.1 151.4 141.3 130.9 120.3 109.8 99.7 90 80.6
72.2 64.6 57.5 50.7 44.3 38.3 32.1 26.1 20.6 15.3
10.8 7 3.9 1.6 0.8 0.1 0
164.1 167 170 172.9 175.4 177 177.7 176.1 173.7 169.3
163.2 155.5 146.8 136.6 126.1 115.7 105.4 95.3 85.6 76.3
68.5 60.5 53.7 47.1 40.7 34.6 28.7 22.7 17.3 12.9
9.1 5.9 3.1 1.3 0.2 0.1 0
164.1 166.6 169 171.3 173.2 174.6 174.6 172.5 169.8 165.2
158.6 150.7 141.6 131.6 121.6 111 100.6 90.8 81.2 72
64 56.4 49.4 43.2 36.8 30.6 24.6 19.2 14.5 10.8
7.3 4.7 2.5 1 0.2 0 0
164.1 166.4 168.1 169.7 171.2 171.8 171.3 169 165.8 160.9
154 146 136.6 126.6 116.7 106.1 95.8 86.2 76.8 67.7
59.6 52.1 45.1 39 32.5 26.6 21.2 16.4 12.4 9.1
6 3.9 2.1 0.9 0.2 0 0
164.1 165.9 167.1 168 168.9 169 168 165.3 161.5 156.2
149.3 141.1 131.9 121.8 111.8 101.4 91.3 81.6 72.3 63.1
55.4 47.8 41.2 34.6 28.5 23.3 18.4 14.2 10.6 7.5
5 3.2 1.6 0.8 0.1 0.1 0
164.1 165.4 165.8 166.2 166.4 166 164.4 161.1 157.2 151.9
144.5 136.3 127.1 117.1 107.1 96.8 86.8 77.3 68.1 59.2
51.3 43.6 36.9 31 25 20.2 16.1 12.4 8.9 6.3
4 2.5 1.2 0.4 0.1 0.2 0
164.1 163.7 160.8 157.9 154.8 151.3 147.3 141.9 136.6 130.1
122.9 115.1 106.9 98 89.1 79.7 70.4 61.9 53.3 44.8
37.3 30.3 24.3 18.7 13.8 9.9 7 4.8 2.6 1.1
0.5 0.2 0.2 0.1 0 0.1 0
164.1 162.2 156.4 150.2 143.9 137 130.1 122.5 115.8 108.6
101.5 94.3 87.6 81.5 75.2 68.4 61.1 53.6 46 38.8
32.1 25.2 18.7 12.3 6.4 3 1.7 1.2 0.9 0.6
0.4 0.4 0.3 0.1 0.1 0 0
164.1 161.3 153.4 145 136.1 127 117.9 109.1 101.3 94
87.6 82.6 77.4 72.7 68.1 63.3 57.9 52 44.3 36.1
28.7 18.8 10.5 4.7 3.1 2.1 1.6 1 0.8 0.6
0.3 0.3 0.2 0.1 0.2 0 0
164.1 160.7 152.1 143.1 133.4 123.2 113.6 104.3 96.7 89.7
84.1 79.1 74.9 70.4 66.3 62.3 57.5 51.5 44.3 36.4
25.5 14.8 6.3 3.9 2.6 1.9 1.5 0.9 0.4 0.3
0.1 0.1 0 0.1 0.1 0 0
