IESNA:LM-63-2002
[TEST]P13213
[TESTLAB]PEACHTREE CITY
[ISSUEDATE]03/28/12
[MANUFAC]COOPER LIGHTING - PORTFOLIO
[LUMCAT]CSQ4142E-4CSQWW1LI
[LUMINAIRE]PORTFOLIO 4 INCH SQUARE CFL 55 DEGREE CUTOFF RECESSED DOWN LIGHT LUMINAIRE
[MORE]WITH SPECULAR CLEAR TRIM
[_MOUNTING]RECESSED
TILT=NONE
1 1800 1 37 23 1 1 0.375 0.375 0
1 1 28.2
0 2.5 5 7.5 10 12.5 15 17.5 20 22.5
25 27.5 30 32.5 35 37.5 40 42.5 45 47.5
50 52.5 55 57.5 60 62.5 65 67.5 70 72.5
75 77.5 80 82.5 85 87.5 90
0 5 10 15 20 25 30 35 40 45
50 55 60 65 70 75 80 85 90 112.5
135 157.5 180
247 255 266 275 283 288 291 292 290 286
280 271 257 240 223 205 188 172 157 143
130 119 109 101 92 81 70 59 48 38
28 18 10 6 1 0 0
247 255 266 275 283 288 291 292 290 286
280 271 257 240 223 205 189 172 157 143
130 119 109 100 92 81 70 60 48 38
27 18 10 5 1 0 0
247 255 266 275 283 288 291 291 289 285
279 270 256 240 223 205 188 172 157 143
130 119 109 100 92 81 70 60 48 38
27 18 10 5 1 0 0
247 255 266 275 282 287 290 291 289 285
279 269 256 240 223 205 188 172 157 142
130 118 108 100 91 81 70 60 48 38
27 18 10 5 1 0 0
247 255 265 274 281 287 289 290 288 284
277 268 256 240 224 205 188 172 156 142
130 118 108 99 90 81 70 59 48 37
27 17 10 5 1 0 0
247 255 265 273 281 286 288 289 287 283
276 267 256 240 223 206 188 171 156 142
129 117 106 97 88 80 69 58 47 37
27 17 10 5 1 0 0
247 255 264 272 279 285 287 287 286 281
275 266 255 240 223 205 188 171 155 140
128 115 105 95 86 77 67 57 46 36
26 17 10 5 1 0 0
247 254 263 271 278 283 286 286 284 280
273 264 253 239 223 205 187 170 154 139
126 113 102 93 83 74 65 55 44 34
25 17 10 5 1 0 0
247 254 262 270 277 281 284 284 282 277
270 261 250 237 221 204 186 168 152 137
123 111 100 90 80 71 62 53 42 33
24 16 10 5 1 0 0
247 253 262 269 275 279 282 282 280 275
267 258 246 233 218 201 184 166 150 134
121 109 98 88 78 69 60 50 41 32
23 16 10 4 1 0 0
247 253 261 267 273 277 279 279 277 271
264 254 242 228 214 198 181 164 147 132
119 107 96 86 76 66 57 48 39 30
22 15 9 4 1 0 0
247 253 259 265 271 275 276 277 273 268
260 249 237 223 208 192 177 160 145 130
116 104 94 83 74 64 54 45 36 28
21 14 8 3 1 0 0
247 252 258 263 268 272 273 273 269 263
255 244 232 217 202 186 171 156 141 126
113 101 90 80 70 60 51 42 33 26
18 12 7 3 1 0 0
247 252 257 261 266 269 270 269 265 258
250 239 226 211 196 180 165 150 135 122
109 97 86 76 66 56 47 38 30 22
16 10 6 2 1 0 0
247 251 255 259 263 266 266 264 260 253
244 232 219 205 190 174 159 144 129 116
103 91 80 70 61 52 42 34 26 19
13 8 5 2 1 0 0
247 250 254 257 260 262 261 259 255 247
238 226 212 198 183 168 152 138 123 109
97 85 74 64 55 45 37 29 22 16
11 7 4 1 0 0 0
247 250 252 255 257 258 257 254 249 241
231 219 206 191 176 161 146 131 117 103
91 78 68 58 48 40 32 25 18 13
9 6 3 1 0 0 0
247 249 251 252 253 254 252 249 243 235
225 212 199 184 169 154 139 124 110 96
84 72 62 52 43 35 27 21 16 12
8 5 3 1 0 0 0
247 249 249 250 250 250 247 243 237 228
218 206 192 177 162 147 132 118 104 90
78 66 56 46 37 31 24 18 13 9
6 4 2 1 0 0 0
247 246 242 238 233 228 222 215 207 197
186 175 162 149 135 121 108 94 81 69
57 47 37 29 21 15 11 7 4 2
1 0 0 0 0 0 0
247 244 236 226 217 208 197 186 175 164
153 143 132 123 113 103 93 81 70 59
49 39 29 20 11 5 3 2 1 1
0 0 0 0 0 0 0
247 243 231 218 206 192 178 165 153 142
132 124 116 108 102 94 87 78 68 56
45 32 19 8 5 3 2 2 1 1
1 0 0 0 0 0 0
247 242 230 216 201 186 172 159 146 135
126 119 111 105 99 93 86 78 68 57
43 26 12 7 4 3 2 1 1 1
0 0 0 0 0 0 0
