IESNA:LM-63-2002
[TEST]P13207
[TESTLAB]PEACHTREE CITY
[ISSUEDATE]03/21/12
[MANUFAC]COOPER LIGHTING - PORTFOLIO
[LUMCAT]CSQ4142E-4CSQWW1LI
[LUMINAIRE]PORTFOLIO 4 INCH SQUARE CFL 55 DEGREE CUTOFF RECESSED DOWN LIGHT LUMINAIRE
[MORE]WITH SPECULAR CLEAR TRIM
[_MOUNTING]RECESSED
TILT=NONE
1 2400 1 37 23 1 1 0.375 0.375 0
1 1 34.3
0 2.5 5 7.5 10 12.5 15 17.5 20 22.5
25 27.5 30 32.5 35 37.5 40 42.5 45 47.5
50 52.5 55 57.5 60 62.5 65 67.5 70 72.5
75 77.5 80 82.5 85 87.5 90
0 5 10 15 20 25 30 35 40 45
50 55 60 65 70 75 80 85 90 112.5
135 157.5 180
322 334 348 361 372 381 386 388 387 383
376 365 348 326 302 278 255 234 214 195
176 161 148 136 124 110 96 82 68 54
40 27 16 9 2 0 0
322 334 348 361 372 380 386 388 387 383
375 364 347 326 302 278 255 234 214 194
177 161 148 136 124 111 97 83 68 54
40 27 16 9 2 0 0
322 333 348 360 371 380 385 387 386 382
375 364 347 326 303 278 255 234 214 195
177 161 148 136 124 111 97 83 68 54
40 27 15 8 2 0 0
322 333 347 360 370 379 384 386 385 381
374 363 347 326 303 279 256 234 214 195
177 161 147 135 124 111 97 83 68 54
40 27 15 8 2 0 0
322 333 347 359 369 378 383 385 384 380
373 362 348 327 304 280 257 234 214 195
177 161 147 135 123 111 97 83 68 53
40 26 15 8 2 0 0
322 333 346 358 368 376 382 384 383 378
371 361 347 328 305 281 257 234 213 195
177 160 146 133 121 109 96 81 67 52
39 26 15 7 2 0 0
322 333 345 357 367 375 380 382 381 377
369 359 345 328 305 281 257 234 212 192
175 158 143 129 117 105 92 78 64 50
37 25 15 7 2 0 0
322 332 344 355 365 372 378 380 379 374
367 356 342 325 304 280 256 232 210 190
171 155 140 126 113 101 88 75 62 48
35 24 14 7 2 0 0
322 332 343 353 363 370 375 377 376 371
363 352 338 321 301 278 254 230 207 187
168 152 136 122 109 97 85 72 59 46
34 23 14 7 2 0 0
322 331 342 351 360 367 372 374 372 367
359 347 332 315 296 274 251 227 204 183
165 148 133 119 106 93 81 68 56 44
33 23 14 7 2 0 0
322 331 340 349 357 364 368 370 368 362
353 341 326 308 289 268 247 223 201 180
161 144 130 116 103 90 77 65 53 42
31 22 13 6 2 0 0
322 330 339 347 354 360 364 365 363 356
347 334 318 300 281 260 239 218 197 177
158 141 126 112 99 86 73 61 50 39
29 20 12 5 1 0 0
322 329 337 344 351 356 359 360 356 349
339 326 310 292 273 252 231 211 191 172
154 137 122 107 94 81 69 57 46 35
26 17 9 4 1 0 0
322 329 335 342 347 352 354 353 349 342
332 318 302 284 264 243 223 203 184 165
148 131 116 101 88 76 64 52 41 31
22 14 8 3 1 0 0
322 328 333 339 344 347 349 347 342 334
323 309 292 274 254 234 215 195 175 157
139 123 108 94 81 69 57 45 35 26
18 11 6 3 0 0 0
322 327 332 336 340 342 342 340 334 325
313 299 282 264 245 225 205 186 167 148
130 114 99 85 73 60 49 38 29 21
15 9 5 2 0 0 0
322 326 330 333 335 337 336 333 326 316
304 289 272 254 234 215 195 176 157 139
122 105 91 77 64 52 42 33 25 18
12 8 4 2 0 0 0
322 326 327 329 331 331 330 325 318 308
295 280 262 244 224 205 185 166 147 130
113 97 82 68 56 46 36 28 21 15
10 6 3 1 0 0 0
322 325 325 326 326 326 323 318 310 299
286 270 252 234 215 195 176 157 138 121
104 88 74 60 49 40 32 24 18 13
8 5 2 1 0 0 0
322 321 316 310 304 297 290 281 269 256
243 227 211 194 176 158 140 122 105 89
74 60 48 36 26 19 13 9 5 2
1 0 0 0 0 0 0
322 318 307 295 283 270 256 242 228 213
199 185 172 159 147 133 119 104 89 76
62 49 36 23 12 5 3 2 2 1
1 1 0 0 0 0 0
322 316 301 285 267 250 232 215 199 184
172 161 151 142 132 123 113 100 85 70
55 36 20 9 6 4 3 2 2 1
1 1 0 0 0 0 0
322 316 299 281 262 243 224 206 190 176
165 154 146 137 129 121 112 100 86 71
49 28 12 7 5 4 2 2 1 1
1 1 0 0 0 0 0
