IESNA:LM-63-2002
[TEST]P13214
[TESTLAB]PEACHTREE CITY
[ISSUEDATE]03/29/12
[MANUFAC]COOPER LIGHTING - PORTFOLIO
[LUMCAT]CSQ4142E-4CSQWW1H
[LUMINAIRE]PORTFOLIO 4 INCH SQUARE CFL 55 DEGREE CUTOFF RECESSED DOWN LIGHT LUMINAIRE
[MORE]WITH SEMI-SPECULAR CLEAR TRIM
[_MOUNTING]RECESSED
TILT=NONE
1 1800 1 37 23 1 1 0.375 0.375 0
1 1 28.2
0 2.5 5 7.5 10 12.5 15 17.5 20 22.5
25 27.5 30 32.5 35 37.5 40 42.5 45 47.5
50 52.5 55 57.5 60 62.5 65 67.5 70 72.5
75 77.5 80 82.5 85 87.5 90
0 5 10 15 20 25 30 35 40 45
50 55 60 65 70 75 80 85 90 112.5
135 157.5 180
231 238 248 256 263 269 273 275 275 273
269 263 250 233 217 199 184 169 154 140
127 116 107 99 90 80 69 59 48 37
27 18 10 5 1 0 0
231 238 248 256 263 269 273 275 275 273
269 262 249 233 217 200 183 168 154 140
127 116 107 98 90 79 69 58 48 37
27 17 10 5 1 0 0
231 238 247 256 263 269 273 275 275 273
268 262 249 233 217 200 183 168 153 140
127 116 106 98 89 79 68 59 48 37
27 17 9 5 1 0 0
231 238 247 255 262 268 272 274 274 272
267 261 249 233 217 199 183 168 153 139
126 115 105 97 88 79 68 58 47 37
27 17 9 5 1 0 0
231 238 247 255 262 267 271 273 273 271
266 259 249 233 217 200 183 167 153 139
126 114 104 96 87 78 68 58 47 37
27 17 9 5 1 0 0
231 238 247 254 261 266 270 272 272 269
264 257 249 234 217 200 183 167 152 139
125 113 103 94 85 77 67 56 46 36
27 17 9 5 1 0 0
231 238 246 253 260 265 269 270 270 267
263 255 247 234 218 200 183 167 152 137
124 112 101 91 83 74 65 54 45 35
26 17 9 5 1 0 0
231 237 245 252 259 264 267 269 268 265
260 253 244 233 217 200 183 166 150 136
122 110 99 89 80 71 62 52 43 34
25 17 9 4 1 0 0
231 237 245 251 257 262 265 266 265 262
257 250 241 230 216 199 182 165 148 134
120 108 96 86 77 68 60 51 41 33
24 16 9 5 1 0 0
231 237 244 250 256 260 263 264 263 259
254 246 237 225 212 197 180 163 146 131
118 106 95 84 75 66 57 49 40 32
24 16 9 4 1 0 0
231 236 243 249 254 258 261 261 260 256
250 242 232 220 207 193 178 160 144 129
116 103 92 82 72 64 55 47 39 30
23 16 9 4 1 0 0
231 236 242 247 252 256 258 258 256 252
246 237 226 214 201 187 172 157 142 127
113 101 90 80 71 62 53 44 36 29
21 14 8 4 1 0 0
231 235 241 246 250 253 255 255 252 248
241 231 221 208 195 180 166 151 137 123
110 98 87 77 68 59 51 42 34 26
19 13 7 3 1 0 0
231 235 239 244 248 251 252 251 248 243
235 226 215 202 188 174 159 145 131 118
106 94 84 74 65 56 47 39 31 23
17 11 6 2 1 0 0
231 235 238 242 246 248 248 247 244 238
230 220 208 195 181 167 153 138 125 112
100 89 79 70 61 52 43 35 27 20
14 9 5 2 1 0 0
231 234 237 240 243 244 244 243 239 233
224 214 202 189 175 160 146 132 119 106
94 83 73 64 55 47 39 31 24 17
12 8 4 2 0 0 0
231 234 236 238 240 241 240 238 234 227
218 208 196 182 168 154 140 126 113 100
88 78 68 59 50 42 34 27 20 15
10 6 3 1 0 0 0
231 233 234 236 237 237 236 234 228 221
212 201 189 176 162 148 134 120 107 94
83 72 62 54 45 37 30 23 17 13
9 5 3 1 0 0 0
231 233 233 234 234 234 232 228 223 216
206 195 183 170 156 142 128 114 101 89
77 67 57 48 41 34 27 20 15 11
7 4 2 1 0 0 0
231 230 227 223 220 216 210 205 197 189
179 168 157 144 131 118 105 93 80 69
58 48 40 32 25 19 14 10 6 4
2 1 1 1 0 0 0
231 228 221 214 206 198 189 180 171 161
150 140 129 119 108 97 87 77 67 57
48 39 30 23 16 10 6 5 3 3
2 1 1 1 0 0 0
231 227 217 207 196 185 174 162 152 140
130 120 111 103 94 86 78 70 61 52
43 33 25 17 12 9 7 5 4 3
2 2 1 1 0 0 0
231 227 216 205 193 181 168 157 145 134
124 115 107 99 91 84 77 69 61 51
41 32 23 16 12 10 7 5 4 3
2 2 1 1 0 0 0
