IESNA:LM-63-2002
[TEST]P13208
[TESTLAB]PEACHTREE CITY
[ISSUEDATE]03/21/12
[MANUFAC]COOPER LIGHTING - PORTFOLIO
[LUMCAT]CSQ4142E-4CSQWW1H
[LUMINAIRE]PORTFOLIO 4 INCH SQUARE CFL 55 DEGREE CUTOFF RECESSED DOWN LIGHT LUMINAIRE
[MORE]WITH SEMI-SPECULAR CLEAR TRIM
[_MOUNTING]RECESSED
TILT=NONE
1 2400 1 37 23 1 1 0.375 0.375 0
1 1 34.2
0 2.5 5 7.5 10 12.5 15 17.5 20 22.5
25 27.5 30 32.5 35 37.5 40 42.5 45 47.5
50 52.5 55 57.5 60 62.5 65 67.5 70 72.5
75 77.5 80 82.5 85 87.5 90
0 5 10 15 20 25 30 35 40 45
50 55 60 65 70 75 80 85 90 112.5
135 157.5 180
305 316 329 341 351 359 365 369 369 366
361 352 335 315 294 272 252 232 213 194
177 161 149 137 126 112 97 83 68 53
39 26 15 8 1 0 0
305 316 329 340 351 359 365 368 369 366
360 352 335 315 294 273 252 232 213 194
177 161 149 137 126 112 97 83 68 53
39 26 15 8 1 0 0
305 316 328 340 350 358 365 368 368 366
360 351 336 315 294 272 252 232 213 194
176 161 148 136 125 111 97 83 67 53
39 26 14 8 1 0 0
305 316 328 340 350 358 364 367 367 365
359 350 336 316 294 273 252 232 213 194
176 160 147 135 124 110 97 83 67 53
39 26 14 7 1 0 0
305 316 328 339 349 357 363 366 366 363
358 349 337 316 295 273 252 232 212 194
176 159 145 133 122 109 96 82 67 53
39 26 14 7 2 0 0
305 315 327 338 348 356 361 364 364 362
356 347 336 317 295 273 252 231 211 193
175 158 143 131 119 107 94 80 66 52
38 25 14 7 2 0 0
305 315 326 337 346 354 360 362 362 359
353 344 333 317 295 273 251 229 209 191
173 156 141 127 115 103 91 77 64 50
37 25 14 7 2 0 0
305 315 325 336 344 352 357 360 360 356
350 341 329 315 294 272 249 227 206 187
169 153 137 123 111 99 87 74 61 48
35 24 14 7 2 0 0
305 314 324 334 343 350 354 357 356 353
346 337 324 309 293 269 246 224 203 183
165 149 134 120 107 95 83 71 58 46
34 23 14 7 2 0 0
305 314 323 332 340 347 351 353 352 349
342 331 318 303 286 267 243 219 199 179
161 145 130 116 103 91 80 68 56 44
33 23 14 7 2 0 0
305 313 322 330 338 344 348 349 348 343
336 325 311 296 278 260 240 217 195 175
157 141 126 113 100 88 76 65 54 42
32 22 13 6 2 0 0
305 313 320 328 335 340 344 344 343 338
329 318 304 288 270 251 232 212 191 171
153 137 122 109 96 84 73 62 50 40
30 20 12 5 1 0 0
305 312 319 326 332 337 339 340 337 331
322 310 296 279 261 242 223 204 185 167
149 132 118 104 92 80 69 58 47 36
26 18 10 4 1 0 0
305 311 317 323 329 333 335 334 331 324
314 302 287 270 253 234 214 195 177 159
143 127 113 99 87 75 64 53 42 32
23 15 8 4 1 0 0
305 310 315 321 325 328 329 328 324 317
306 293 278 261 244 225 206 187 169 151
135 120 106 93 81 69 58 47 37 27
19 12 7 3 1 0 0
305 310 314 318 321 324 324 322 317 309
298 285 269 252 235 216 197 178 160 143
127 112 98 85 74 62 51 41 32 23
16 10 6 2 1 0 0
305 309 312 315 317 319 318 315 309 301
290 276 260 243 225 207 188 170 152 135
119 104 90 78 66 55 45 35 27 20
14 8 5 2 0 0 0
305 308 310 312 313 314 312 309 302 293
281 267 251 234 217 198 180 162 144 127
111 96 83 71 59 49 39 31 23 17
11 7 4 2 0 0 0
305 307 308 309 309 309 306 302 295 285
273 259 243 226 208 190 171 154 136 119
104 89 76 64 53 44 35 27 20 14
9 6 3 1 0 0 0
305 304 299 295 290 284 277 269 260 248
236 221 206 190 174 157 140 123 107 92
77 64 52 42 32 24 18 12 8 4
2 1 1 1 0 0 0
305 301 291 281 271 260 249 237 224 211
197 183 169 155 142 128 114 100 87 74
62 50 39 29 20 12 8 6 5 3
3 2 1 1 0 0 0
305 299 286 272 258 243 228 213 199 185
171 159 147 135 125 114 103 92 80 68
55 42 30 21 15 11 9 7 5 4
3 2 1 1 0 0 0
305 298 284 269 253 237 221 206 191 177
164 152 141 131 121 112 102 91 79 66
53 39 28 21 16 12 9 7 5 4
3 2 1 1 0 0 0
