IESNA:LM-63-1995
[TEST]    18646A
[MANUFAC]COOPER LIGHTING - SHAPER                              
[LUMCAT]638-14-CF2/26-RB                                                                
[LUMINAIRE]FLUORESCENT WALL MOUNT LUMINAIRE WITH WHITE INTERIOR AND NO LENS                                                 
[LAMP]TWO 26 WATT CPFL LAMPS. LUMEN RATING = 3600 LMS.                                
[OTHER]SIMULATED REPORT CREATED FROM TEST OF 2 - 13 WATT LAMPS                         
TILT=NONE
1
      3600
1
73
17
1
1
  0.00
  0.00
  0.00
1
1
    0.0000
0 2.5 5 7.5 10 12.5 15 17.5 20 22.5 25 27.5 30 32.5 35 37.5
40 42.5 45 47.5 50 52.5 55 57.5 60 62.5 65 67.5 70 72.5 75
77.5 80 82.5 85 87.5 90 92.5 95 97.5 100 102.5 105 107.5 110
112.5 115 117.5 120 122.5 125 127.5 130 132.5 135 137.5 140
142.5 145 147.5 150 152.5 155 157.5 160 162.5 165 167.5 170
172.5 175 177.5 180
0 22.5 45 67.5 90 112.5 135 157.5 180 202.5 225 247.5
270 292.5 315 337.5 360
       0.0        0.0        0.0        0.0        0.0        0.0        0.4        2.3        6.5       10.1
       9.3        8.3        6.8        5.1        3.6        2.3        1.3        0.9        0.9        0.4
       0.0        0.0        0.4        0.4        0.4        0.9        0.9        1.3        1.3        1.9
       1.9        2.3        2.7        3.2        3.6        4.2        5.1        6.5        8.7       11.6
      14.8       20.9       28.6       41.5      101.3      174.5      220.8      282.1      343.2      402.4
     430.3      447.4      460.8      473.7      484.9      497.8      513.6      530.3      547.0      561.8
     576.6      590.6      604.8      618.3      630.2      640.1      646.0      648.8      649.8      646.0
     632.1      612.2      601.3
       0.0        0.0        0.0        0.0        0.0        0.0        0.9        2.3        4.6        8.3
       9.3        8.3        7.4        5.9        4.6        3.2        2.3        1.9        1.3        0.9
       0.4        0.4        0.0        0.0        0.0        0.4        0.4        0.4        0.9        1.3
       1.3        1.9        2.3        2.3        2.7        3.2        4.2        5.1        6.8        9.3
      12.5       18.0       25.8       51.8      110.2      168.5      229.2      292.7      350.6      392.3
     421.9      444.5      461.2      475.6      489.5      503.9      519.3      533.5      548.9      563.7
     578.8      594.2      609.0      622.1      633.1      642.0      647.5      650.7      650.7      646.9
     634.0      616.0      601.3
       0.0        0.0        0.0        0.0        0.0        0.0        0.0        0.9        1.9        3.6
       5.9        7.8        7.8        7.8        7.4        6.5        5.5        4.6        3.6        2.7
       2.3        2.3        1.9        1.9        1.9        1.3        1.3        1.3        1.3        0.9
       0.9        0.9        1.3        1.3        1.3        1.9        2.7        3.2        4.6        6.5
       9.7       16.1       34.7       73.6      124.1      183.5      242.7      294.4      333.5      366.7
     393.1      416.4      436.4      453.4      470.1      486.8      503.9      521.5      538.6      555.3
     572.4      587.2      601.6      614.1      624.7      633.7      639.2      642.4      642.4      635.9
     625.7      611.3      601.3
       0.0        0.0        0.0        0.0        0.0        0.0        0.0        0.0        0.4        0.4
       0.9        1.3        1.9        1.9        2.7        3.2        4.2        4.6        5.1        5.1
       5.1        5.1        4.6        4.6        4.2        3.6        3.2        2.7        2.7        2.3
       1.9        1.3        1.3        1.3        1.3        1.3        1.3        2.3        3.6        5.9
      12.9       27.3       59.2      101.9      148.2      191.6      230.7      267.1      297.9      325.9
     350.6      373.4      394.0      415.5      437.1      458.9      481.7      502.6      522.9      541.5
     559.5      575.2      589.6      601.2      609.9      616.4      620.2      620.6      619.6      616.4
     610.9      604.8      601.3
       0.0        0.0        0.0        0.0        0.0        0.0        0.0        0.0        0.0        0.0
       0.0        0.0        0.0        0.0        0.0        0.0        0.0        0.0        0.0        0.0
       0.0        0.0        0.0        0.0        0.0        0.0        0.0        0.0        0.0        0.0
       0.0        0.0        0.0        0.0        0.0        0.0        0.5        2.8        6.0       10.9
      22.7       42.3       64.1       87.3      113.0      139.3      166.9      196.1      224.3      252.1
     278.8      305.6      330.5      356.1      380.7      404.6      427.7      448.8      469.5      488.1
     506.5      522.0      536.5      549.2      560.0      569.7      577.0      584.2      590.0      594.9
     598.2      600.0      601.3
       0.0        0.0        0.0        0.0        0.0        0.0        0.0        0.0        0.0        0.0
       0.0        0.0        0.0        0.0        0.0        0.0        0.0        0.0        0.0        0.0
       0.0        0.0        0.0        0.0        0.0        0.0        0.0        0.0        0.0        0.0
       0.0        0.0        0.0        0.0        0.0        0.0        4.6        8.7       12.5       16.1
      21.2       28.3       37.0       46.7       59.8       74.0       90.3      108.7      128.3      150.1
     171.7      194.5      215.7      236.2      254.2      271.3      288.9      307.5      329.7      356.7
     395.0      433.5      469.6      508.1      546.0      565.9      573.0      579.4      584.5      588.1
     591.9      595.5      601.3
       0.0        0.0        0.0        0.0        0.0        0.0        0.0        0.0        0.0        0.0
       0.0        0.0        0.0        0.0        0.0        0.0        0.0        0.0        0.0        0.0
       0.0        0.0        0.0        0.0        0.0        0.0        0.0        0.0        0.0        0.0
       0.0        0.0        0.0        0.0        0.0        0.0        0.0        0.0        0.9        1.3
       2.3        3.2        4.2        5.1        6.8        8.7       10.6       13.5       16.7       20.3
      24.5       29.6       35.7       43.1       50.5       59.2       69.8       82.0       98.1      126.4
     180.6      252.9      319.5      347.4      367.3      388.2      444.1      512.2      579.8      595.5
     596.1      596.1      601.3
       0.0        0.0        0.0        0.0        0.0        0.0        0.0        0.0        0.0        0.0
       0.0        0.0        0.0        0.0        0.0        0.0        0.0        0.0        0.0        0.0
       0.0        0.0        0.0        0.0        0.0        0.0        0.0        0.0        0.0        0.0
       0.0        0.0        0.0        0.0        0.0        0.0        0.0        0.0        0.0        0.0
       0.0        0.0        0.0        0.0        0.0        0.0        0.0        0.0        0.0        0.0
       0.0        0.0        0.0        0.0        3.2        8.3       15.7       24.1       35.1       49.1
      66.2       84.2      107.0      163.9      272.2      354.8      379.8      406.6      495.5      579.8
     602.9      600.7      601.3
       0.0        0.0        0.0        0.0        0.0        0.0        0.0        0.0        0.0        0.0
       0.0        0.0        0.0        0.0        0.0        0.0        0.0        0.0        0.0        0.0
       0.0        0.0        0.0        0.0        0.0        0.0        0.0        0.0        0.0        0.0
       0.0        0.0        0.0        0.0        0.0        0.0        0.0        0.0        0.0        0.0
       0.0        0.0        0.0        0.0        0.0        0.0        0.0        0.0        0.0        0.0
       0.0        0.0        0.0        0.0        0.0        0.0        0.0        4.6       16.1       27.3
      40.8       58.2       80.6      104.2      157.8      283.8      365.8      392.3      428.0      531.2
     607.1      603.9      601.3
       0.0        0.0        0.0        0.0        0.0        0.0        0.0        0.0        0.0        0.0
       0.0        0.0        0.0        0.0        0.0        0.0        0.0        0.0        0.0        0.0
       0.0        0.0        0.0        0.0        0.0        0.0        0.0        0.0        0.0        0.0
       0.0        0.0        0.0        0.0        0.0        0.0        0.0        0.0        0.0        0.0
       0.0        0.0        0.0        0.0        0.0        0.0        0.0        0.0        0.0        0.0
       0.0        0.0        0.0        0.0        3.2        8.3       15.7       24.1       35.1       49.1
      66.2       84.2      107.0      163.9      272.2      354.8      379.8      406.6      495.5      579.8
     602.9      600.7      601.3
       0.0        0.0        0.0        0.0        0.0        0.0        0.0        0.0        0.0        0.0
       0.0        0.0        0.0        0.0        0.0        0.0        0.0        0.0        0.0        0.0
       0.0        0.0        0.0        0.0        0.0        0.0        0.0        0.0        0.0        0.0
       0.0        0.0        0.0        0.0        0.0        0.0        0.0        0.0        0.9        1.3
       2.3        3.2        4.2        5.1        6.8        8.7       10.6       13.5       16.7       20.3
      24.5       29.6       35.7       43.1       50.5       59.2       69.8       82.0       98.1      126.4
     180.6      252.9      319.5      347.4      367.3      388.2      444.1      512.2      579.8      595.5
     596.1      596.1      601.3
       0.0        0.0        0.0        0.0        0.0        0.0        0.0        0.0        0.0        0.0
       0.0        0.0        0.0        0.0        0.0        0.0        0.0        0.0        0.0        0.0
       0.0        0.0        0.0        0.0        0.0        0.0        0.0        0.0        0.0        0.0
       0.0        0.0        0.0        0.0        0.0        0.0        4.6        8.7       12.5       16.1
      21.2       28.3       37.0       46.7       59.8       74.0       90.3      108.7      128.3      150.1
     171.7      194.5      215.7      236.2      254.2      271.3      288.9      307.5      329.7      356.7
     395.0      433.5      469.6      508.1      546.0      565.9      573.0      579.4      584.5      588.1
     591.9      595.5      601.3
       0.0        0.0        0.0        0.0        0.0        0.0        0.0        0.0        0.0        0.0
       0.0        0.0        0.0        0.0        0.0        0.0        0.0        0.0        0.0        0.0
       0.0        0.0        0.0        0.0        0.0        0.0        0.0        0.0        0.0        0.0
       0.0        0.0        0.0        0.0        0.0        0.0        0.5        2.8        6.0       10.9
      22.7       42.3       64.1       87.3      113.0      139.3      166.9      196.1      224.3      252.1
     278.8      305.6      330.5      356.1      380.7      404.6      427.7      448.8      469.5      488.1
     506.5      522.0      536.5      549.2      560.0      569.7      577.0      584.2      590.0      594.9
     598.2      600.0      601.3
       0.0        0.0        0.0        0.0        0.0        0.0        0.0        0.0        0.4        0.4
       0.9        1.3        1.9        1.9        2.7        3.2        4.2        4.6        5.1        5.1
       5.1        5.1        4.6        4.6        4.2        3.6        3.2        2.7        2.7        2.3
       1.9        1.3        1.3        1.3        1.3        1.3        1.3        2.3        3.6        5.9
      12.9       27.3       59.2      101.9      148.2      191.6      230.7      267.1      297.9      325.9
     350.6      373.4      394.0      415.5      437.1      458.9      481.7      502.6      522.9      541.5
     559.5      575.2      589.6      601.2      609.9      616.4      620.2      620.6      619.6      616.4
     610.9      604.8      601.3
       0.0        0.0        0.0        0.0        0.0        0.0        0.0        0.9        1.9        3.6
       5.9        7.8        7.8        7.8        7.4        6.5        5.5        4.6        3.6        2.7
       2.3        2.3        1.9        1.9        1.9        1.3        1.3        1.3        1.3        0.9
       0.9        0.9        1.3        1.3        1.3        1.9        2.7        3.2        4.6        6.5
       9.7       16.1       34.7       73.6      124.1      183.5      242.7      294.4      333.5      366.7
     393.1      416.4      436.4      453.4      470.1      486.8      503.9      521.5      538.6      555.3
     572.4      587.2      601.6      614.1      624.7      633.7      639.2      642.4      642.4      635.9
     625.7      611.3      601.3
       0.0        0.0        0.0        0.0        0.0        0.0        0.9        2.3        4.6        8.3
       9.3        8.3        7.4        5.9        4.6        3.2        2.3        1.9        1.3        0.9
       0.4        0.4        0.0        0.0        0.0        0.4        0.4        0.4        0.9        1.3
       1.3        1.9        2.3        2.3        2.7        3.2        4.2        5.1        6.8        9.3
      12.5       18.0       25.8       51.8      110.2      168.5      229.2      292.7      350.6      392.3
     421.9      444.5      461.2      475.6      489.5      503.9      519.3      533.5      548.9      563.7
     578.8      594.2      609.0      622.1      633.1      642.0      647.5      650.7      650.7      646.9
     634.0      616.0      601.3
       0.0        0.0        0.0        0.0        0.0        0.0        0.4        2.3        6.5       10.1
       9.3        8.3        6.8        5.1        3.6        2.3        1.3        0.9        0.9        0.4
       0.0        0.0        0.4        0.4        0.4        0.9        0.9        1.3        1.3        1.9
       1.9        2.3        2.7        3.2        3.6        4.2        5.1        6.5        8.7       11.6
      14.8       20.9       28.6       41.5      101.3      174.5      220.8      282.1      343.2      402.4
     430.3      447.4      460.8      473.7      484.9      497.8      513.6      530.3      547.0      561.8
     576.6      590.6      604.8      618.3      630.2      640.1      646.0      648.8      649.8      646.0
     632.1      612.2      601.3
