IESNA:LM-63-1995
[TEST]    18652A
[MANUFAC]COOPER LIGHTING - SHAPER                             
[LUMCAT]638-12-CF2/13                                                                   
[LUMINAIRE]FLUORESCENT WALL MOUNT LUMINAIRE WITH WHITE INTERIOR AND NO LENS                                                 
[LAMP]TWO 13 WATT CPFL LAMPS. LUMEN RATING = 1600 LMS.                                
[OTHER]SIMULATED REPORT CREATED FROM TEST OF 26 WATT LAMPS                             
TILT=NONE
1
      1600
1
73
17
1
1
  0.00
  0.00
  0.00
1
1
    0.0000
0 2.5 5 7.5 10 12.5 15 17.5 20 22.5 25 27.5 30 32.5 35 37.5
40 42.5 45 47.5 50 52.5 55 57.5 60 62.5 65 67.5 70 72.5 75
77.5 80 82.5 85 87.5 90 92.5 95 97.5 100 102.5 105 107.5 110
112.5 115 117.5 120 122.5 125 127.5 130 132.5 135 137.5 140
142.5 145 147.5 150 152.5 155 157.5 160 162.5 165 167.5 170
172.5 175 177.5 180
0 22.5 45 67.5 90 112.5 135 157.5 180 202.5 225 247.5
270 292.5 315 337.5 360
       1.5        2.1        2.3        2.7        3.0        3.3        3.5        3.8        4.1        4.3
       4.5        4.7        4.8        5.1        5.3        5.4        5.6        5.7        5.5        5.3
       5.3        5.0        4.9        4.7        4.5        4.3        4.2        4.0        3.8        3.7
       3.5        3.3        3.3        3.1        2.9        2.8        3.2        6.4       10.0       14.3
      22.4       33.9       47.0       60.0       73.3       86.7       99.8      113.4      126.5      139.9
     152.7      165.6      177.7      190.1      201.7      213.0      223.8      233.8      243.8      253.3
     262.5      270.8      278.8      285.9      292.0      297.4      301.7      305.3      308.0      310.3
     311.8      312.6      308.8
       1.5        1.9        2.0        2.2        2.3        2.5        2.5        2.7        2.8        2.9
       2.9        2.9        2.9        3.0        3.0        3.0        3.0        2.9        2.7        2.5
       2.4        2.2        2.1        2.0        1.9        1.7        1.6        1.5        1.4        1.3
       1.2        1.2        1.1        0.9        0.9        0.8        0.9        3.6        9.0       15.4
      25.6       41.8       63.5       84.7      106.2      124.9      140.6      154.9      167.7      180.1
     191.7      203.4      215.1      226.7      237.6      248.3      258.2      267.3      276.3      284.6
     292.4      298.7      304.3      308.6      311.8      314.1      315.2      315.4      315.2      315.0
     314.6      313.4      308.8
       1.5        1.5        1.7        1.9        2.0        2.1        2.2        2.2        2.2        2.2
       2.2        2.2        2.1        2.1        2.1        2.2        2.1        1.9        1.7        1.5
       1.4        1.3        1.2        1.1        1.1        0.9        0.8        0.8        0.7        0.7
       0.6        0.6        0.5        0.5        0.5        0.5        0.5        1.2        6.8       13.8
      22.7       36.3       55.0       75.5       97.2      119.0      141.4      165.0      186.3      204.8
     219.2      232.6      243.7      253.3      262.2      270.8      279.5      287.5      295.2      302.1
     308.9      315.2      320.9      325.9      330.1      332.9      333.4      331.5      328.0      323.7
     320.4      317.8      308.8
       1.5        1.1        1.1        1.4        1.6        1.7        1.7        1.6        1.6        1.7
       1.6        1.6        1.5        1.6        1.6        1.4        1.3        1.2        1.1        0.9
       0.9        0.7        0.7        0.6        0.6        0.5        0.5        0.6        0.6        0.6
       0.6        0.5        0.5        0.5        0.5        0.5        0.5        0.5        5.0       12.1
      20.6       30.7       45.9       65.2       87.9      107.4      125.9      146.2      166.6      190.3
     211.6      231.3      245.2      255.6      264.6      272.7      278.8      284.6      290.4      295.7
     301.1      305.8      309.9      313.8      316.7      319.0      319.6      318.1      313.9      307.6
     301.7      297.8      308.8
       1.5        1.2        1.3        1.3        1.3        1.3        1.6        1.7        1.7        1.7
       1.6        1.6        1.6        1.6        1.5        1.3        1.1        0.9        0.9        0.8
       0.7        0.6        0.5        0.5        0.5        0.5        0.5        0.6        0.6        0.6
       0.6        0.5        0.5        0.5        0.5        0.5        0.5        0.5        3.5       10.3
      18.1       27.1       40.2       56.6       79.5      100.2      120.5      141.3      162.1      184.5
     207.7      229.1      247.7      261.8      270.6      277.7      284.4      289.4      294.4      298.8
     303.3      307.3      310.9      314.0      317.1      319.1      320.1      319.0      314.7      308.1
     302.2      298.3      308.8
       1.5        1.1        1.1        1.4        1.6        1.7        1.7        1.6        1.6        1.7
       1.6        1.6        1.5        1.6        1.6        1.4        1.3        1.2        1.1        0.9
       0.9        0.7        0.7        0.6        0.6        0.5        0.5        0.6        0.6        0.6
       0.6        0.5        0.5        0.5        0.5        0.5        0.5        0.5        5.0       12.1
      20.6       30.7       45.9       65.2       87.9      107.4      125.9      146.2      166.6      190.3
     211.6      231.3      245.2      255.6      264.6      272.7      278.8      284.6      290.4      295.7
     301.1      305.8      309.9      313.8      316.7      319.0      319.6      318.1      313.9      307.6
     301.7      297.8      308.8
       1.5        1.5        1.7        1.9        2.0        2.1        2.2        2.2        2.2        2.2
       2.2        2.2        2.1        2.1        2.1        2.2        2.1        1.9        1.7        1.5
       1.4        1.3        1.2        1.1        1.1        0.9        0.8        0.8        0.7        0.7
       0.6        0.6        0.5        0.5        0.5        0.5        0.5        1.2        6.8       13.8
      22.7       36.3       55.0       75.5       97.2      119.0      141.4      165.0      186.3      204.8
     219.2      232.6      243.7      253.3      262.2      270.8      279.5      287.5      295.2      302.1
     308.9      315.2      320.9      325.9      330.1      332.9      333.4      331.5      328.0      323.7
     320.4      317.8      308.8
       1.5        1.9        2.0        2.2        2.3        2.5        2.5        2.7        2.8        2.9
       2.9        2.9        2.9        3.0        3.0        3.0        3.0        2.9        2.7        2.5
       2.4        2.2        2.1        2.0        1.9        1.7        1.6        1.5        1.4        1.3
       1.2        1.2        1.1        0.9        0.9        0.8        0.9        3.6        9.0       15.4
      25.6       41.8       63.5       84.7      106.2      124.9      140.6      154.9      167.7      180.1
     191.7      203.4      215.1      226.7      237.6      248.3      258.2      267.3      276.3      284.6
     292.4      298.7      304.3      308.6      311.8      314.1      315.2      315.4      315.2      315.0
     314.6      313.4      308.8
       1.5        2.1        2.3        2.7        3.0        3.3        3.5        3.8        4.1        4.3
       4.5        4.7        4.8        5.1        5.3        5.4        5.6        5.7        5.5        5.3
       5.3        5.0        4.9        4.7        4.5        4.3        4.2        4.0        3.8        3.7
       3.5        3.3        3.3        3.1        2.9        2.8        3.2        6.4       10.0       14.3
      22.4       33.9       47.0       60.0       73.3       86.7       99.8      113.4      126.5      139.9
     152.7      165.6      177.7      190.1      201.7      213.0      223.8      233.8      243.8      253.3
     262.5      270.8      278.8      285.9      292.0      297.4      301.7      305.3      308.0      310.3
     311.8      312.6      308.8
       1.5        2.1        2.5        3.0        3.7        4.2        4.5        5.0        5.3        5.9
       6.4        6.9        7.5        7.9        8.4        8.9        9.4       10.0       10.5       10.6
      10.7       10.8       11.0       11.2       11.3       11.4       11.6       11.7       12.0       12.0
      12.1       12.0       12.0       11.7       11.6       11.5       13.2       15.9       18.6       22.4
      30.6       41.9       56.1       71.3       89.4      106.5      121.6      136.0      150.0      164.0
     177.3      191.0      203.4      215.9      228.1      240.0      251.6      262.1      271.6      279.2
     285.8      290.9      295.1      298.2      300.4      302.1      303.2      304.3      305.6      307.1
     308.7      310.3      308.8
       1.5        1.6        2.4        3.0        3.5        3.9        4.5        5.2        5.9        6.6
       7.4        8.2        9.1       10.0       10.9       12.1       13.1       14.2       15.1       16.1
      18.1       20.6       22.3       23.5       24.8       25.9       27.1       28.0       29.0       29.7
      30.5       30.9       31.3       31.4       31.5       32.2       36.2       40.3       44.9       49.6
      54.8       61.2       72.9       85.0      100.7      116.1      131.4      146.6      160.8      175.6
     191.1      206.6      218.6      229.5      238.9      248.0      257.2      266.0      274.8      283.0
     290.5      297.6      304.9      310.8      314.2      315.2      314.0      311.3      308.0      304.3
     301.9      301.6      308.8
       1.5        1.7        1.9        2.2        3.0        3.5        4.2        5.0        5.9        6.6
       7.5        8.6        9.8       11.4       13.7       17.7       21.6       24.5       25.1       25.0
      25.0       25.4       26.7       28.2       29.8       31.6       33.7       35.4       36.9       38.4
      39.7       41.0       41.9       42.5       42.7       45.5       50.0       53.7       57.3       60.9
      64.6       68.2       72.4       79.4       90.3      100.8      114.3      129.3      143.8      157.6
     170.9      184.7      198.1      212.7      226.6      238.3      247.8      255.6      263.1      270.8
     278.8      286.5      293.8      299.6      305.7      311.0      313.2      312.3      308.4      302.7
     297.0      294.0      308.8
       1.5        1.2        1.3        1.4        1.9        3.1        4.5        5.2        5.9        6.7
       7.5        8.9       10.6       13.6       16.9       20.9       22.9       24.3       24.6       25.1
      25.9       27.8       30.2       33.2       36.5       40.0       43.4       46.1       48.2       50.0
      51.3       52.1       52.3       51.8       50.6       53.2       56.2       58.9       61.8       64.8
      68.2       72.1       76.1       81.3       91.9      103.4      115.9      131.6      148.4      164.6
     178.7      194.0      208.9      224.1      239.2      255.3      269.1      279.3      288.1      296.0
     304.3      312.0      320.2      327.2      333.1      338.8      343.5      344.6      341.8      335.6
     328.2      321.8      308.8
       1.5        1.7        1.9        2.2        3.0        3.5        4.2        5.0        5.9        6.6
       7.5        8.6        9.8       11.4       13.7       17.7       21.6       24.5       25.1       25.0
      25.0       25.4       26.7       28.2       29.8       31.6       33.7       35.4       36.9       38.4
      39.7       41.0       41.9       42.5       42.7       45.5       50.0       53.7       57.3       60.9
      64.6       68.2       72.4       79.4       90.3      100.8      114.3      129.3      143.8      157.6
     170.9      184.7      198.1      212.7      226.6      238.3      247.8      255.6      263.1      270.8
     278.8      286.5      293.8      299.6      305.7      311.0      313.2      312.3      308.4      302.7
     297.0      294.0      308.8
       1.5        1.6        2.4        3.0        3.5        3.9        4.5        5.2        5.9        6.6
       7.4        8.2        9.1       10.0       10.9       12.1       13.1       14.2       15.1       16.1
      18.1       20.6       22.3       23.5       24.8       25.9       27.1       28.0       29.0       29.7
      30.5       30.9       31.3       31.4       31.5       32.2       36.2       40.3       44.9       49.6
      54.8       61.2       72.9       85.0      100.7      116.1      131.4      146.6      160.8      175.6
     191.1      206.6      218.6      229.5      238.9      248.0      257.2      266.0      274.8      283.0
     290.5      297.6      304.9      310.8      314.2      315.2      314.0      311.3      308.0      304.3
     301.9      301.6      308.8
       1.5        2.1        2.5        3.0        3.7        4.2        4.5        5.0        5.3        5.9
       6.4        6.9        7.5        7.9        8.4        8.9        9.4       10.0       10.5       10.6
      10.7       10.8       11.0       11.2       11.3       11.4       11.6       11.7       12.0       12.0
      12.1       12.0       12.0       11.7       11.6       11.5       13.2       15.9       18.6       22.4
      30.6       41.9       56.1       71.3       89.4      106.5      121.6      136.0      150.0      164.0
     177.3      191.0      203.4      215.9      228.1      240.0      251.6      262.1      271.6      279.2
     285.8      290.9      295.1      298.2      300.4      302.1      303.2      304.3      305.6      307.1
     308.7      310.3      308.8
       1.5        2.1        2.3        2.7        3.0        3.3        3.5        3.8        4.1        4.3
       4.5        4.7        4.8        5.1        5.3        5.4        5.6        5.7        5.5        5.3
       5.3        5.0        4.9        4.7        4.5        4.3        4.2        4.0        3.8        3.7
       3.5        3.3        3.3        3.1        2.9        2.8        3.2        6.4       10.0       14.3
      22.4       33.9       47.0       60.0       73.3       86.7       99.8      113.4      126.5      139.9
     152.7      165.6      177.7      190.1      201.7      213.0      223.8      233.8      243.8      253.3
     262.5      270.8      278.8      285.9      292.0      297.4      301.7      305.3      308.0      310.3
     311.8      312.6      308.8
