IESNA:LM-63-1995
[TEST]     18652
[MANUFAC]COOPER LIGHTING - SHAPER                             
[LUMCAT]638-12-CF2/26                                                                   
[LUMINAIRE]FLUORESCENT WALL MOUNT LUMINAIRE WITH WHITE INTERIOR AND NO LENS                                                 
[LAMP]TWO SYLVANIA 26 WATT CPFL LAMPS                                                 
[LAMPCAT]CF26DD/E841. LUMEN RATING = 3600 LMS.                                           
[OTHER]ONE UNIVERSAL C2642UNVSE BALLAST OPERATING AT 120 VAC AND 48 WATTS              
TILT=NONE
1
      3600
1
73
17
1
1
  0.00
  0.00
  0.00
1
1
   48.0000
0 2.5 5 7.5 10 12.5 15 17.5 20 22.5 25 27.5 30 32.5 35 37.5
40 42.5 45 47.5 50 52.5 55 57.5 60 62.5 65 67.5 70 72.5 75
77.5 80 82.5 85 87.5 90 92.5 95 97.5 100 102.5 105 107.5 110
112.5 115 117.5 120 122.5 125 127.5 130 132.5 135 137.5 140
142.5 145 147.5 150 152.5 155 157.5 160 162.5 165 167.5 170
172.5 175 177.5 180
0 22.5 45 67.5 90 112.5 135 157.5 180 202.5 225 247.5
270 292.5 315 337.5 360
       2.7        4.2        4.6        5.4        6.1        6.9        7.3        8.0        8.5        9.0
       9.5        9.9       10.2       10.8       11.2       11.6       11.9       12.1       11.8       11.4
      11.2       10.7       10.4        9.9        9.6        9.1        8.9        8.4        7.9        7.7
       7.3        6.9        6.7        6.3        5.9        5.6        6.5       13.8       21.9       31.5
      49.8       75.5      105.2      134.3      164.3      194.4      223.8      254.6      284.0      314.2
     343.0      371.9      399.1      427.1      453.2      478.5      503.0      525.5      548.0      569.3
     590.0      608.7      626.6      642.6      656.4      668.5      678.1      686.2      692.4      697.6
     700.8      702.6      694.2
       2.7        3.6        3.8        4.3        4.6        5.1        5.1        5.4        5.6        5.9
       5.9        5.9        5.9        6.1        6.1        6.1        6.1        5.9        5.4        5.1
       4.8        4.3        4.1        3.8        3.6        3.3        3.0        2.7        2.5        2.3
       2.0        2.0        1.8        1.5        1.5        1.2        1.5        7.4       19.6       34.1
      57.0       93.4      142.3      190.1      238.2      280.3      315.7      348.0      376.7      404.6
     430.6      457.0      483.3      509.5      534.0      558.1      580.3      600.7      621.1      639.8
     657.3      671.5      684.1      693.8      700.9      706.1      708.7      709.0      708.7      708.1
     707.2      704.5      694.2
       2.7        2.7        3.3        3.6        3.8        4.1        4.3        4.3        4.3        4.3
       4.3        4.3        4.1        4.1        4.1        4.3        4.1        3.6        3.3        2.7
       2.5        2.3        2.0        1.8        1.8        1.5        1.2        1.2        0.9        0.9
       0.7        0.7        0.5        0.5        0.5        0.5        0.5        2.0       14.7       30.5
      50.6       81.0      123.2      169.2      218.0      267.1      317.5      370.7      418.6      460.2
     492.7      522.7      547.7      569.4      589.3      608.8      628.3      646.2      663.5      679.0
     694.5      708.5      721.4      732.7      742.0      748.5      749.5      745.2      737.4      727.6
     720.3      714.4      694.2
       2.7        1.8        1.8        2.5        3.0        3.3        3.3        3.0        3.0        3.3
       3.0        3.0        2.7        3.0        3.0        2.5        2.3        2.0        1.8        1.5
       1.5        0.9        0.9        0.7        0.7        0.5        0.5        0.7        0.7        0.7
       0.7        0.5        0.5        0.5        0.5        0.5        0.5        0.5       10.6       26.5
      45.7       68.4      102.7      146.1      197.0      241.0      282.7      328.4      374.3      427.6
     475.4      519.9      551.1      574.4      594.8      612.9      626.8      639.8      652.7      664.8
     676.9      687.5      696.6      705.4      712.1      717.0      718.5      715.1      705.6      691.4
     678.2      669.4      694.2
       2.7        2.0        2.3        2.3        2.3        2.3        3.0        3.3        3.3        3.3
       3.0        3.0        3.0        3.0        2.7        2.3        1.8        1.5        1.5        1.2
       0.9        0.7        0.5        0.5        0.5        0.5        0.5        0.7        0.7        0.7
       0.7        0.5        0.5        0.5        0.5        0.5        0.5        0.5        7.2       22.6
      40.2       60.4       89.8      126.8      178.2      224.8      270.5      317.3      364.1      414.4
     466.6      514.9      556.8      588.3      608.2      624.2      639.2      650.6      661.7      671.7
     681.8      690.9      698.9      705.9      712.8      717.5      719.6      717.0      707.4      692.7
     679.3      670.5      694.2
       2.7        1.8        1.8        2.5        3.0        3.3        3.3        3.0        3.0        3.3
       3.0        3.0        2.7        3.0        3.0        2.5        2.3        2.0        1.8        1.5
       1.5        0.9        0.9        0.7        0.7        0.5        0.5        0.7        0.7        0.7
       0.7        0.5        0.5        0.5        0.5        0.5        0.5        0.5       10.6       26.5
      45.7       68.4      102.7      146.1      197.0      241.0      282.7      328.4      374.3      427.6
     475.4      519.9      551.1      574.4      594.8      612.9      626.8      639.8      652.7      664.8
     676.9      687.5      696.6      705.4      712.1      717.0      718.5      715.1      705.6      691.4
     678.2      669.4      694.2
       2.7        2.7        3.3        3.6        3.8        4.1        4.3        4.3        4.3        4.3
       4.3        4.3        4.1        4.1        4.1        4.3        4.1        3.6        3.3        2.7
       2.5        2.3        2.0        1.8        1.8        1.5        1.2        1.2        0.9        0.9
       0.7        0.7        0.5        0.5        0.5        0.5        0.5        2.0       14.7       30.5
      50.6       81.0      123.2      169.2      218.0      267.1      317.5      370.7      418.6      460.2
     492.7      522.7      547.7      569.4      589.3      608.8      628.3      646.2      663.5      679.0
     694.5      708.5      721.4      732.7      742.0      748.5      749.5      745.2      737.4      727.6
     720.3      714.4      694.2
       2.7        3.6        3.8        4.3        4.6        5.1        5.1        5.4        5.6        5.9
       5.9        5.9        5.9        6.1        6.1        6.1        6.1        5.9        5.4        5.1
       4.8        4.3        4.1        3.8        3.6        3.3        3.0        2.7        2.5        2.3
       2.0        2.0        1.8        1.5        1.5        1.2        1.5        7.4       19.6       34.1
      57.0       93.4      142.3      190.1      238.2      280.3      315.7      348.0      376.7      404.6
     430.6      457.0      483.3      509.5      534.0      558.1      580.3      600.7      621.1      639.8
     657.3      671.5      684.1      693.8      700.9      706.1      708.7      709.0      708.7      708.1
     707.2      704.5      694.2
       2.7        4.2        4.6        5.4        6.1        6.9        7.3        8.0        8.5        9.0
       9.5        9.9       10.2       10.8       11.2       11.6       11.9       12.1       11.8       11.4
      11.2       10.7       10.4        9.9        9.6        9.1        8.9        8.4        7.9        7.7
       7.3        6.9        6.7        6.3        5.9        5.6        6.5       13.8       21.9       31.5
      49.8       75.5      105.2      134.3      164.3      194.4      223.8      254.6      284.0      314.2
     343.0      371.9      399.1      427.1      453.2      478.5      503.0      525.5      548.0      569.3
     590.0      608.7      626.6      642.6      656.4      668.5      678.1      686.2      692.4      697.6
     700.8      702.6      694.2
       2.7        4.1        5.1        6.1        7.7        8.8        9.5       10.6       11.3       12.6
      13.8       14.9       16.2       17.2       18.3       19.3       20.6       21.9       22.9       23.1
      23.5       23.7       24.2       24.5       24.7       24.9       25.5       25.8       26.3       26.3
      26.5       26.3       26.3       25.8       25.5       25.3       29.1       35.1       41.2       49.8
      68.1       93.7      125.5      159.9      200.4      239.0      273.0      305.3      336.9      368.4
     398.4      429.2      457.0      485.2      512.6      539.4      565.6      589.1      610.6      627.6
     642.3      654.0      663.3      670.3      675.3      679.0      681.6      684.1      687.0      690.4
     694.0      697.6      694.2
       2.7        3.0        4.8        6.1        7.2        8.2        9.5       11.1       12.6       14.2
      16.0       17.8       19.9       21.9       24.0       26.5       28.9       31.4       33.3       35.6
      40.2       45.7       49.5       52.4       55.2       57.8       60.4       62.4       64.5       66.1
      67.9       68.9       69.7       69.9       70.2       71.7       80.8       90.1      100.4      111.0
     122.6      137.1      163.5      190.6      226.0      260.7      295.1      329.1      361.2      394.5
     429.4      464.3      491.2      515.7      536.9      557.3      578.2      597.9      617.8      636.1
     652.9      668.9      685.5      698.6      706.3      708.5      705.9      699.9      692.5      684.1
     678.7      678.0      694.2
       2.7        3.3        3.6        4.3        6.1        7.2        8.8       10.6       12.6       14.2
      16.2       18.8       21.4       24.9       30.1       39.2       48.0       54.5       55.7       55.5
      55.5       56.5       59.3       62.7       66.3       70.5       75.1       79.0       82.3       85.7
      88.8       91.6       93.7       95.0       95.5      101.8      111.8      120.3      128.4      136.4
     144.7      152.9      162.2      178.0      202.5      226.3      256.5      290.4      322.9      353.9
     384.0      415.0      445.1      477.9      509.3      535.6      557.0      574.6      591.4      608.8
     626.8      643.9      660.4      673.5      687.3      699.1      704.0      702.0      693.2      680.5
     667.6      660.9      694.2
       2.7        2.0        2.3        2.5        3.6        6.4        9.5       11.1       12.6       14.4
      16.2       19.3       23.1       29.9       37.4       46.4       50.9       54.2       54.7       55.7
      57.8       62.0       67.4       74.1       81.6       89.3       97.1      103.1      107.9      111.8
     114.7      116.5      117.0      116.0      113.1      119.0      125.8      132.0      138.4      145.2
     152.9      161.7      170.7      182.3      206.1      232.0      260.1      295.6      333.3      369.7
     401.5      435.8      469.5      503.6      537.6      573.8      604.8      627.8      647.7      665.3
     684.1      701.5      719.8      735.6      748.8      761.7      772.3      774.8      768.4      754.5
     737.9      723.5      694.2
       2.7        3.3        3.6        4.3        6.1        7.2        8.8       10.6       12.6       14.2
      16.2       18.8       21.4       24.9       30.1       39.2       48.0       54.5       55.7       55.5
      55.5       56.5       59.3       62.7       66.3       70.5       75.1       79.0       82.3       85.7
      88.8       91.6       93.7       95.0       95.5      101.8      111.8      120.3      128.4      136.4
     144.7      152.9      162.2      178.0      202.5      226.3      256.5      290.4      322.9      353.9
     384.0      415.0      445.1      477.9      509.3      535.6      557.0      574.6      591.4      608.8
     626.8      643.9      660.4      673.5      687.3      699.1      704.0      702.0      693.2      680.5
     667.6      660.9      694.2
       2.7        3.0        4.8        6.1        7.2        8.2        9.5       11.1       12.6       14.2
      16.0       17.8       19.9       21.9       24.0       26.5       28.9       31.4       33.3       35.6
      40.2       45.7       49.5       52.4       55.2       57.8       60.4       62.4       64.5       66.1
      67.9       68.9       69.7       69.9       70.2       71.7       80.8       90.1      100.4      111.0
     122.6      137.1      163.5      190.6      226.0      260.7      295.1      329.1      361.2      394.5
     429.4      464.3      491.2      515.7      536.9      557.3      578.2      597.9      617.8      636.1
     652.9      668.9      685.5      698.6      706.3      708.5      705.9      699.9      692.5      684.1
     678.7      678.0      694.2
       2.7        4.1        5.1        6.1        7.7        8.8        9.5       10.6       11.3       12.6
      13.8       14.9       16.2       17.2       18.3       19.3       20.6       21.9       22.9       23.1
      23.5       23.7       24.2       24.5       24.7       24.9       25.5       25.8       26.3       26.3
      26.5       26.3       26.3       25.8       25.5       25.3       29.1       35.1       41.2       49.8
      68.1       93.7      125.5      159.9      200.4      239.0      273.0      305.3      336.9      368.4
     398.4      429.2      457.0      485.2      512.6      539.4      565.6      589.1      610.6      627.6
     642.3      654.0      663.3      670.3      675.3      679.0      681.6      684.1      687.0      690.4
     694.0      697.6      694.2
       2.7        4.2        4.6        5.4        6.1        6.9        7.3        8.0        8.5        9.0
       9.5        9.9       10.2       10.8       11.2       11.6       11.9       12.1       11.8       11.4
      11.2       10.7       10.4        9.9        9.6        9.1        8.9        8.4        7.9        7.7
       7.3        6.9        6.7        6.3        5.9        5.6        6.5       13.8       21.9       31.5
      49.8       75.5      105.2      134.3      164.3      194.4      223.8      254.6      284.0      314.2
     343.0      371.9      399.1      427.1      453.2      478.5      503.0      525.5      548.0      569.3
     590.0      608.7      626.6      642.6      656.4      668.5      678.1      686.2      692.4      697.6
     700.8      702.6      694.2
