IESNA:LM-63-1995
[TEST]     20063
[MANUFAC]COOPER LIGHTING - SHAPER                                 
[LUMCAT]676-WP-CF1/32                                                                   
[LUMINAIRE]EXTERIOR WALL MOUNT LUMINAIRE WITH WHITE INTERIOR AND WHITE PLASTIC LENS                                      
[LAMP]ONE SYLVANIA 26 WATT CPFL LAMP                                                  
[LAMPCAT]CF32DT/E/841. LUMEN RATING = 2400 LMS.                                          
[OTHER]ONE UNIVERSAL C2642UNVSE BALLAST OPERATING AT 120 VAC AND 33                    
TILT=NONE
1
      2400
1
73
17
1
1
  0.33
  0.58
  0.00
1
1
   33.0000
0 2.5 5 7.5 10 12.5 15 17.5 20 22.5 25 27.5 30 32.5 35 37.5
40 42.5 45 47.5 50 52.5 55 57.5 60 62.5 65 67.5 70 72.5 75
77.5 80 82.5 85 87.5 90 92.5 95 97.5 100 102.5 105 107.5 110
112.5 115 117.5 120 122.5 125 127.5 130 132.5 135 137.5 140
142.5 145 147.5 150 152.5 155 157.5 160 162.5 165 167.5 170
172.5 175 177.5 180
0 22.5 45 67.5 90 112.5 135 157.5 180 202.5 225 247.5
270 292.5 315 337.5 360
      71.4       70.7       78.1       90.0      104.1      111.1      109.4      103.1       97.0       90.2
      84.6       79.4       73.7       67.3       61.0       52.8       45.3       37.4       28.7       21.8
      15.3       10.1        7.0        4.9        3.3        2.3        1.1        0.7        0.4        0.7
       0.4        0.1        0.0        0.0        0.0        0.0        0.0        0.0        0.0        0.0
       0.0        0.0        0.0        0.0        0.0        0.0        0.4        2.3        4.6        7.6
      11.1       16.5       21.9       27.6       34.8       42.0       49.1       55.6       61.1       66.8
      71.4       76.4       81.1       86.3       91.5       97.0      101.6      105.3      102.1       91.4
      79.4       70.6       67.6
      71.4       71.6       79.6       91.0      106.1      113.9      112.8      107.5      101.1       94.3
      88.1       81.5       75.6       69.3       62.6       54.6       47.1       38.8       31.4       24.7
      17.3       11.8        8.1        5.7        3.9        2.9        2.3        1.9        1.5        0.8
       0.7        0.6        0.4        0.0        0.0        0.0        0.0        0.0        0.0        0.0
       0.0        0.0        0.0        0.0        0.0        0.5        1.3        3.7        5.8        9.2
      13.2       17.6       23.2       29.5       36.0       42.8       50.8       57.1       64.1       70.3
      76.8       82.5       88.9       94.2       99.6      104.7      109.0      110.7      107.5       94.9
      81.8       71.8       67.6
      71.4       72.1       81.0       93.7      109.4      118.4      118.5      114.1      108.3      102.4
      97.2       91.2       84.6       77.2       69.8       61.0       53.0       45.4       37.7       29.9
      23.9       18.3       13.3        9.7        7.2        5.7        4.7        4.0        3.4        2.3
       1.7        1.6        1.2        0.2        0.1        0.4        0.4        0.0        0.0        0.0
       0.0        0.0        0.9        1.6        2.3        3.3        5.0        7.6       10.5       15.0
      19.4       25.0       31.0       37.2       44.2       51.5       59.8       67.3       75.6       82.5
      89.7       96.2      102.0      107.2      110.7      114.1      117.1      117.7      113.6      100.7
      85.5       73.8       67.6
      71.4       72.3       82.4       96.0      113.2      121.5      122.3      121.5      120.0      117.2
     112.9      107.6      100.6       93.6       85.9       76.8       68.7       60.7       52.6       44.4
      37.6       31.1       24.7       19.9       15.0       12.1       10.4        8.7        7.1        5.4
       4.3        3.5        2.5        1.8        0.8        0.9        0.9        2.4        2.4        3.3
       4.3        5.4        7.3        9.0       10.6       12.9       15.9       20.2       24.7       29.8
      34.2       40.3       46.7       53.4       60.6       67.9       75.0       82.6       90.2       97.5
     104.2      110.7      116.1      119.7      122.9      124.2      123.9      121.8      116.2      103.7
      87.4       74.1       67.6
      71.4       76.4       88.3      104.5      119.6      128.8      135.1      138.6      139.8      139.4
     137.0      132.8      127.5      120.9      113.8      105.4       97.8       90.1       82.2       74.8
      68.1       61.5       55.1       49.6       44.3       40.1       36.3       33.2       30.6       28.4
      26.4       24.5       23.1       21.7       20.6       20.5       20.4       18.8       19.7       21.2
      22.8       24.9       26.9       29.5       32.6       36.2       39.9       44.8       49.5       54.8
      60.1       65.6       71.6       78.1       84.8       91.5       99.1      105.9      113.1      119.5
     125.3      130.5      134.4      137.2      137.7      136.5      133.0      126.6      115.9       99.5
      84.1       72.7       67.6
      71.4       79.4       93.0      110.9      127.4      140.3      149.4      155.7      159.4      160.5
     159.3      155.8      151.2      145.8      139.1      132.6      125.8      117.9      111.2      104.5
      98.3       92.1       87.0       81.9       77.2       73.2       69.3       66.1       63.4       60.6
      58.7       57.7       56.3       55.7       54.8       54.0       53.7       42.6       43.4       45.0
      46.5       48.4       50.2       52.8       55.5       59.1       62.6       67.2       71.8       76.8
      82.4       87.8       93.6       99.4      105.7      112.1      118.5      125.0      131.4      137.2
     142.6      146.3      149.4      149.7      148.4      144.9      137.7      127.1      111.9       93.8
      79.7       69.9       67.6
      71.4       79.4       92.0      108.5      126.4      142.8      155.7      163.6      169.7      173.2
     174.4      173.2      170.3      165.9      160.7      155.6      149.9      143.3      137.7      131.8
     125.8      120.2      115.4      110.6      106.0      101.7       97.9       94.4       91.2       88.7
      87.2       86.3       85.7       84.8       83.2       81.5       80.1       81.2       82.0       82.9
      84.0       85.2       87.0       89.3       88.9       91.9       92.0       92.7       97.0      102.0
     107.2      112.3      117.7      123.1      129.0      134.8      140.3      146.1      151.4      156.3
     159.9      162.9      164.1      162.6      159.8      153.0      143.4      130.2      113.1       95.5
      81.0       70.7       67.6
      71.4       79.6       92.2      107.6      127.2      144.4      158.3      167.6      173.8      177.0
     177.4      176.6      174.2      170.7      166.9      162.1      157.4      151.8      147.1      142.1
     137.0      132.0      127.0      122.5      117.7      113.8      109.7      106.7      105.3      103.8
     102.6      101.5      100.4       98.2       95.4       93.1       90.6       92.4       92.1       92.6
      93.7       94.4       96.1       97.3      100.2      103.1      106.9      110.3      114.5      118.7
     122.7      127.5      132.0      136.8      141.6      146.6      151.6      156.4      160.8      164.2
     167.2      168.4      169.0      167.1      162.6      154.9      145.1      130.2      112.4       94.6
      81.1       71.1       67.6
      71.4       79.0       92.4      108.8      128.7      145.8      158.9      167.0      173.6      176.4
     178.1      177.5      175.9      172.9      169.8      166.1      162.0      157.6      153.1      148.3
     144.4      140.0      135.5      131.5      127.1      123.9      121.2      119.9      119.1      117.7
     117.0      115.9      115.0      112.4      109.6      107.2      104.5      106.7      106.8      106.3
     107.0      107.3      107.9      108.9      110.7      113.3      116.4      119.9      123.0      127.3
     131.0      134.5      138.3      141.4      145.2      149.0      152.2      155.7      159.1      162.1
     164.1      165.5      165.5      163.0      159.0      152.8      142.5      127.6      111.0       93.3
      80.0       70.6       67.6
      71.4       79.6       92.2      107.6      127.2      144.4      158.3      167.6      173.8      177.0
     177.4      176.6      174.2      170.7      166.9      162.1      157.4      151.8      147.1      142.1
     137.0      132.0      127.0      122.5      117.7      113.8      109.7      106.7      105.3      103.8
     102.6      101.5      100.4       98.2       95.4       93.1       90.6       92.4       92.1       92.6
      93.7       94.4       96.1       97.3      100.2      103.1      106.9      110.3      114.5      118.7
     122.7      127.5      132.0      136.8      141.6      146.6      151.6      156.4      160.8      164.2
     167.2      168.4      169.0      167.1      162.6      154.9      145.1      130.2      112.4       94.6
      81.1       71.1       67.6
      71.4       79.4       92.0      108.5      126.4      142.8      155.7      163.6      169.7      173.2
     174.4      173.2      170.3      165.9      160.7      155.6      149.9      143.3      137.7      131.8
     125.8      120.2      115.4      110.6      106.0      101.7       97.9       94.4       91.2       88.7
      87.2       86.3       85.7       84.8       83.2       81.5       80.1       81.2       82.0       82.9
      84.0       85.2       87.0       89.3       88.9       91.9       92.0       92.7       97.0      102.0
     107.2      112.3      117.7      123.1      129.0      134.8      140.3      146.1      151.4      156.3
     159.9      162.9      164.1      162.6      159.8      153.0      143.4      130.2      113.1       95.5
      81.0       70.7       67.6
      71.4       79.4       93.0      110.9      127.4      140.3      149.4      155.7      159.4      160.5
     159.3      155.8      151.2      145.8      139.1      132.6      125.8      117.9      111.2      104.5
      98.3       92.1       87.0       81.9       77.2       73.2       69.3       66.1       63.4       60.6
      58.7       57.7       56.3       55.7       54.8       54.0       53.7       42.6       43.4       45.0
      46.5       48.4       50.2       52.8       55.5       59.1       62.6       67.2       71.8       76.8
      82.4       87.8       93.6       99.4      105.7      112.1      118.5      125.0      131.4      137.2
     142.6      146.3      149.4      149.7      148.4      144.9      137.7      127.1      111.9       93.8
      79.7       69.9       67.6
      71.4       76.4       88.3      104.5      119.6      128.8      135.1      138.6      139.8      139.4
     137.0      132.8      127.5      120.9      113.8      105.4       97.8       90.1       82.2       74.8
      68.1       61.5       55.1       49.6       44.3       40.1       36.3       33.2       30.6       28.4
      26.4       24.5       23.1       21.7       20.6       20.5       20.4       18.8       19.7       21.2
      22.8       24.9       26.9       29.5       32.6       36.2       39.9       44.8       49.5       54.8
      60.1       65.6       71.6       78.1       84.8       91.5       99.1      105.9      113.1      119.5
     125.3      130.5      134.4      137.2      137.7      136.5      133.0      126.6      115.9       99.5
      84.1       72.7       67.6
      71.4       72.3       82.4       96.0      113.2      121.5      122.3      121.5      120.0      117.2
     112.9      107.6      100.6       93.6       85.9       76.8       68.7       60.7       52.6       44.4
      37.6       31.1       24.7       19.9       15.0       12.1       10.4        8.7        7.1        5.4
       4.3        3.5        2.5        1.8        0.8        0.9        0.9        2.4        2.4        3.3
       4.3        5.4        7.3        9.0       10.6       12.9       15.9       20.2       24.7       29.8
      34.2       40.3       46.7       53.4       60.6       67.9       75.0       82.6       90.2       97.5
     104.2      110.7      116.1      119.7      122.9      124.2      123.9      121.8      116.2      103.7
      87.4       74.1       67.6
      71.4       72.1       81.0       93.7      109.4      118.4      118.5      114.1      108.3      102.4
      97.2       91.2       84.6       77.2       69.8       61.0       53.0       45.4       37.7       29.9
      23.9       18.3       13.3        9.7        7.2        5.7        4.7        4.0        3.4        2.3
       1.7        1.6        1.2        0.2        0.1        0.4        0.4        0.0        0.0        0.0
       0.0        0.0        0.9        1.6        2.3        3.3        5.0        7.6       10.5       15.0
      19.4       25.0       31.0       37.2       44.2       51.5       59.8       67.3       75.6       82.5
      89.7       96.2      102.0      107.2      110.7      114.1      117.1      117.7      113.6      100.7
      85.5       73.8       67.6
      71.4       71.6       79.6       91.0      106.1      113.9      112.8      107.5      101.1       94.3
      88.1       81.5       75.6       69.3       62.6       54.6       47.1       38.8       31.4       24.7
      17.3       11.8        8.1        5.7        3.9        2.9        2.3        1.9        1.5        0.8
       0.7        0.6        0.4        0.0        0.0        0.0        0.0        0.0        0.0        0.0
       0.0        0.0        0.0        0.0        0.0        0.5        1.3        3.7        5.8        9.2
      13.2       17.6       23.2       29.5       36.0       42.8       50.8       57.1       64.1       70.3
      76.8       82.5       88.9       94.2       99.6      104.7      109.0      110.7      107.5       94.9
      81.8       71.8       67.6
      71.4       70.7       78.1       90.0      104.1      111.1      109.4      103.1       97.0       90.2
      84.6       79.4       73.7       67.3       61.0       52.8       45.3       37.4       28.7       21.8
      15.3       10.1        7.0        4.9        3.3        2.3        1.1        0.7        0.4        0.7
       0.4        0.1        0.0        0.0        0.0        0.0        0.0        0.0        0.0        0.0
       0.0        0.0        0.0        0.0        0.0        0.0        0.4        2.3        4.6        7.6
      11.1       16.5       21.9       27.6       34.8       42.0       49.1       55.6       61.1       66.8
      71.4       76.4       81.1       86.3       91.5       97.0      101.6      105.3      102.1       91.4
      79.4       70.6       67.6
