IESNA:LM-63-1995
[TEST]     19172
[MANUFAC]COOPER LIGHTING - SHAPER                                 
[LUMCAT]676-WP-CF1/26                                                                   
[LUMINAIRE]EXTERIOR WALL MOUNT LUMINAIRE WITH WHITE INTERIOR AND WHITE PLASTIC LENS                                      
[LAMP]ONE SYLVANIA 26 WATT CPFL LAMP                                                  
[LAMPCAT]CF26DD/E/841. LUMEN RATING = 1800 LMS.                                          
[OTHER]ONE UNIVERSAL C2642UNVSE BALLAST OPERATING AT 120 VAC AND 27                    
TILT=NONE
1
      1800
1
73
17
1
1
  0.33
  0.58
  0.00
1
1
   27.0000
0 2.5 5 7.5 10 12.5 15 17.5 20 22.5 25 27.5 30 32.5 35 37.5
40 42.5 45 47.5 50 52.5 55 57.5 60 62.5 65 67.5 70 72.5 75
77.5 80 82.5 85 87.5 90 92.5 95 97.5 100 102.5 105 107.5 110
112.5 115 117.5 120 122.5 125 127.5 130 132.5 135 137.5 140
142.5 145 147.5 150 152.5 155 157.5 160 162.5 165 167.5 170
172.5 175 177.5 180
0 22.5 45 67.5 90 112.5 135 157.5 180 202.5 225 247.5
270 292.5 315 337.5 360
      56.1       59.4       67.3       78.8       90.0       97.0      101.7      104.5      105.2      105.7
     104.2      102.0       98.0       93.6       88.4       82.2       76.6       70.6       64.7       59.3
      53.3       48.3       43.5       39.1       35.2       31.6       28.6       26.0       23.8       22.2
      20.5       19.0       17.9       16.5       15.6       15.4       15.5       14.1       14.3       15.6
      16.9       18.4       20.1       22.0       24.2       27.0       30.0       33.7       37.1       40.7
      44.8       49.0       53.3       58.0       62.7       67.5       72.6       77.5       82.7       87.4
      91.6       95.3       98.3      100.6      100.9      100.1       97.9       92.8       85.3       73.1
      61.8       54.1       51.0
      56.1       58.2       65.4       75.8       87.6       93.5       95.2       95.1       94.2       92.0
      88.9       85.3       80.6       74.9       69.3       62.5       56.3       50.4       43.6       38.1
      32.4       26.9       22.4       18.3       14.2       11.8       10.1        8.4        7.1        5.4
       4.7        3.3        2.5        2.4        1.8        1.6        1.8        1.3        1.1        1.7
       3.0        3.8        4.7        5.9        7.7        9.2       12.0       14.9       18.0       22.1
      25.8       30.3       34.9       40.0       45.5       51.1       56.5       62.4       67.6       72.8
      78.1       82.2       86.2       88.8       90.9       91.5       90.6       87.9       81.7       69.8
      59.4       52.3       51.0
      56.1       57.3       64.0       73.4       85.1       92.5       92.8       90.1       86.9       82.8
      79.1       74.0       69.0       63.1       57.3       50.4       44.3       38.3       31.6       26.3
      20.9       16.1       12.5        9.5        7.0        5.8        4.7        3.8        3.1        3.2
       2.5        2.1        1.8        0.9        0.9        1.1        0.8        0.5        0.5        0.5
       1.1        1.5        1.4        2.0        3.2        4.1        5.6        7.3        9.8       12.7
      16.3       20.8       25.4       30.0       35.5       40.8       47.1       52.5       58.2       63.4
      68.3       72.6       76.4       79.7       81.7       83.6       85.1       83.9       78.1       66.1
      57.0       50.6       51.0
      56.1       56.4       62.4       70.5       81.9       89.4       90.2       86.9       81.1       75.8
      70.4       64.8       60.3       55.7       49.8       44.7       38.8       32.6       26.9       20.8
      16.2       11.7        7.8        5.8        3.7        3.3        2.8        1.8        1.7        1.9
       1.7        1.3        1.1        0.6        0.6        1.0        0.6        0.5        0.5        0.5
       0.5        0.8        0.5        0.8        1.6        2.0        2.8        4.3        6.1        8.9
      12.0       16.4       20.8       25.1       30.0       35.0       40.4       45.2       50.5       54.9
      59.0       62.9       66.8       70.3       73.3       76.2       78.5       78.1       73.4       63.0
      54.9       49.7       51.0
      56.1       56.1       61.4       69.4       79.8       86.6       86.6       83.1       77.4       72.7
      68.2       63.1       58.9       53.9       49.1       43.8       37.5       31.5       24.4       18.9
      13.6        9.7        6.5        4.7        2.8        2.5        1.7        1.4        1.2        1.4
       1.2        1.1        1.0        0.6        0.7        0.5        0.5        0.5        0.5        0.5
       0.5        0.5        0.7        0.6        1.2        1.5        2.2        3.5        5.4        8.2
      11.3       14.7       19.0       24.4       29.9       35.2       39.8       44.2       48.8       52.3
      56.1       59.2       62.7       65.8       69.3       72.6       76.0       76.9       72.2       62.8
      55.4       50.6       51.0
      56.1       56.4       62.4       70.5       81.9       89.4       90.2       86.9       81.1       75.8
      70.4       64.8       60.3       55.7       49.8       44.7       38.8       32.6       26.9       20.8
      16.2       11.7        7.8        5.8        3.7        3.3        2.8        1.8        1.7        1.9
       1.7        1.3        1.1        0.6        0.6        1.0        0.6        0.5        0.5        0.5
       0.5        0.8        0.5        0.8        1.6        2.0        2.8        4.3        6.1        8.9
      12.0       16.4       20.8       25.1       30.0       35.0       40.4       45.2       50.5       54.9
      59.0       62.9       66.8       70.3       73.3       76.2       78.5       78.1       73.4       63.0
      54.9       49.7       51.0
      56.1       57.3       64.0       73.4       85.1       92.5       92.8       90.1       86.9       82.8
      79.1       74.0       69.0       63.1       57.3       50.4       44.3       38.3       31.6       26.3
      20.9       16.1       12.5        9.5        7.0        5.8        4.7        3.8        3.1        3.2
       2.5        2.1        1.8        0.9        0.9        1.1        0.8        0.5        0.5        0.5
       1.1        1.5        1.4        2.0        3.2        4.1        5.6        7.3        9.8       12.7
      16.3       20.8       25.4       30.0       35.5       40.8       47.1       52.5       58.2       63.4
      68.3       72.6       76.4       79.7       81.7       83.6       85.1       83.9       78.1       66.1
      57.0       50.6       51.0
      56.1       58.2       65.4       75.8       87.6       93.5       95.2       95.1       94.2       92.0
      88.9       85.3       80.6       74.9       69.3       62.5       56.3       50.4       43.6       38.1
      32.4       26.9       22.4       18.3       14.2       11.8       10.1        8.4        7.1        5.4
       4.7        3.3        2.5        2.4        1.8        1.6        1.8        1.3        1.1        1.7
       3.0        3.8        4.7        5.9        7.7        9.2       12.0       14.9       18.0       22.1
      25.8       30.3       34.9       40.0       45.5       51.1       56.5       62.4       67.6       72.8
      78.1       82.2       86.2       88.8       90.9       91.5       90.6       87.9       81.7       69.8
      59.4       52.3       51.0
      56.1       59.4       67.3       78.8       90.0       97.0      101.7      104.5      105.2      105.7
     104.2      102.0       98.0       93.6       88.4       82.2       76.6       70.6       64.7       59.3
      53.3       48.3       43.5       39.1       35.2       31.6       28.6       26.0       23.8       22.2
      20.5       19.0       17.9       16.5       15.6       15.4       15.5       14.1       14.3       15.6
      16.9       18.4       20.1       22.0       24.2       27.0       30.0       33.7       37.1       40.7
      44.8       49.0       53.3       58.0       62.7       67.5       72.6       77.5       82.7       87.4
      91.6       95.3       98.3      100.6      100.9      100.1       97.9       92.8       85.3       73.1
      61.8       54.1       51.0
      56.1       61.3       70.0       81.8       93.8      102.7      109.9      114.5      117.4      118.1
     118.3      116.7      113.7      110.3      105.5      100.0       94.5       88.8       83.5       78.1
      72.4       67.7       62.5       58.6       54.6       51.5       48.5       45.8       43.6       41.4
      39.5       38.0       36.2       35.0       33.4       31.9       30.9       29.7       30.7       32.3
      33.6       35.3       37.5       39.1       41.6       43.6       46.6       49.7       53.2       56.7
      60.5       64.6       68.4       72.7       77.0       81.5       85.7       90.6       95.0       99.5
     103.2      106.5      108.9      110.2      110.0      108.1      104.5       97.8       88.7       76.7
      64.6       55.5       51.0
      56.1       61.3       69.4       80.0       92.8      104.0      113.0      119.5      124.0      126.4
     128.1      127.2      125.9      123.9      120.3      115.9      111.6      106.7      102.1       98.0
      93.0       88.5       83.8       80.2       76.7       73.0       70.2       67.2       64.5       62.0
      60.3       58.2       57.0       55.4       52.6       50.4       47.5       41.2       43.3       45.9
      48.0       50.1       52.7       54.6       57.0       59.4       62.1       65.3       68.4       71.7
      75.3       78.7       82.8       86.4       90.3       94.3       98.3      102.4      106.5      110.3
     113.6      116.2      117.6      118.3      116.9      113.3      108.0      100.6       89.9       76.8
      65.5       56.3       51.0
      56.1       61.4       69.1       79.2       91.8      104.4      115.1      123.5      128.4      130.6
     132.1      131.5      130.0      128.1      125.5      122.3      118.8      114.9      111.2      107.5
     103.0       99.1       94.7       91.4       87.9       84.5       81.5       78.6       76.8       75.4
      73.9       72.0       70.3       67.0       63.8       60.3       56.4       45.0       47.6       50.6
      53.6       56.4       58.9       61.3       63.9       66.9       69.6       72.3       75.5       78.5
      81.9       85.1       88.6       91.8       95.4       98.9      102.4      106.0      109.2      112.4
     115.3      117.2      118.9      118.9      117.4      114.3      108.5      100.0       89.3       75.5
      64.9       55.9       51.0
      56.1       62.4       69.9       80.6       94.0      106.7      118.1      124.9      128.7      131.4
     131.9      132.0      130.9      129.9      127.9      124.7      122.0      119.0      115.7      112.2
     108.8      105.4      101.8       98.6       94.9       92.3       89.8       88.5       87.9       87.3
      85.9       84.3       82.2       78.5       75.1       71.1       67.1       51.8       54.9       58.4
      61.6       64.6       66.9       69.3       72.2       74.3       77.1       79.7       82.5       85.2
      88.1       91.0       93.6       97.0       99.8      102.7      105.6      108.4      111.0      113.6
     115.3      117.1      117.8      117.9      116.0      112.6      107.2       98.3       86.8       74.6
      64.1       55.4       51.0
      56.1       61.4       69.1       79.2       91.8      104.4      115.1      123.5      128.4      130.6
     132.1      131.5      130.0      128.1      125.5      122.3      118.8      114.9      111.2      107.5
     103.0       99.1       94.7       91.4       87.9       84.5       81.5       78.6       76.8       75.4
      73.9       72.0       70.3       67.0       63.8       60.3       56.4       45.0       47.6       50.6
      53.6       56.4       58.9       61.3       63.9       66.9       69.6       72.3       75.5       78.5
      81.9       85.1       88.6       91.8       95.4       98.9      102.4      106.0      109.2      112.4
     115.3      117.2      118.9      118.9      117.4      114.3      108.5      100.0       89.3       75.5
      64.9       55.9       51.0
      56.1       61.3       69.4       80.0       92.8      104.0      113.0      119.5      124.0      126.4
     128.1      127.2      125.9      123.9      120.3      115.9      111.6      106.7      102.1       98.0
      93.0       88.5       83.8       80.2       76.7       73.0       70.2       67.2       64.5       62.0
      60.3       58.2       57.0       55.4       52.6       50.4       47.5       41.2       43.3       45.9
      48.0       50.1       52.7       54.6       57.0       59.4       62.1       65.3       68.4       71.7
      75.3       78.7       82.8       86.4       90.3       94.3       98.3      102.4      106.5      110.3
     113.6      116.2      117.6      118.3      116.9      113.3      108.0      100.6       89.9       76.8
      65.5       56.3       51.0
      56.1       61.3       70.0       81.8       93.8      102.7      109.9      114.5      117.4      118.1
     118.3      116.7      113.7      110.3      105.5      100.0       94.5       88.8       83.5       78.1
      72.4       67.7       62.5       58.6       54.6       51.5       48.5       45.8       43.6       41.4
      39.5       38.0       36.2       35.0       33.4       31.9       30.9       29.7       30.7       32.3
      33.6       35.3       37.5       39.1       41.6       43.6       46.6       49.7       53.2       56.7
      60.5       64.6       68.4       72.7       77.0       81.5       85.7       90.6       95.0       99.5
     103.2      106.5      108.9      110.2      110.0      108.1      104.5       97.8       88.7       76.7
      64.6       55.5       51.0
      56.1       59.4       67.3       78.8       90.0       97.0      101.7      104.5      105.2      105.7
     104.2      102.0       98.0       93.6       88.4       82.2       76.6       70.6       64.7       59.3
      53.3       48.3       43.5       39.1       35.2       31.6       28.6       26.0       23.8       22.2
      20.5       19.0       17.9       16.5       15.6       15.4       15.5       14.1       14.3       15.6
      16.9       18.4       20.1       22.0       24.2       27.0       30.0       33.7       37.1       40.7
      44.8       49.0       53.3       58.0       62.7       67.5       72.6       77.5       82.7       87.4
      91.6       95.3       98.3      100.6      100.9      100.1       97.9       92.8       85.3       73.1
      61.8       54.1       51.0
