IESNA:LM-63-2002
[TEST]P21911
[TESTLAB]Innovations Center P2
[ISSUEDATE]01/23/12
[MANUFAC] COOPER LIGHTING - HALO
[LUMCAT]PD6V142E-60VWWC_32TTT
[LUMINAIRE]6-INCH APERTURE OPEN WALL WASH DOWNLIGHT,
[MORE]VERTICAL LAMP. SPECULAR CLEAR TRIM WITH SPECULAR KICKER.
[LAMPCAT]CF32DT/E/IN/827 32 WATTS
[LAMP](1) GX24Q-3 FOUR PIN BASE TTT CFL LAMP
[BALLASTCAT]QTP2x26CF/UNV DM
[BALLAST](1) SYLVANIA ELECTRONIC BALLAST
[OTHER]INPUT WATTS:32.217, AMPS:0.26873, VOLTS:120.01, BALLAST
[MORE]FACTOR: 1, HOURS OPERATED PRIOR TO TESTING: 12, STABILITY: 60
[MORE]MIN, TOTAL OP TIME: 13 HRS AMB TEMP: 24.6 DEG C
[_MOUNTING]RECESSED
[_WARNING TEST]THIS TEST WAS PERFORMED USING A SPECIFIC BALLAST \ LAMP
[MORE]COMBINATION. EXTRAPOLATION OF THESE DATA FOR OTHER
[MORE]BALLAST\LAMP COMBINATIONS MAY PRODUCE ERRONEOUS RESULTS
[_WARNING BALLAST]NOTE: BALLAST(S) FACTOR SHOULD BE APPLIED TO TEST DATA FOR
[MORE]ALL CALCULATIONS
[_WARNING REALATIVE]RELATIVE PHOTOMETRY IS BASED ON RELATIONAL FACTORS CREATED
[MORE]USING MANUFACTURERS PUBLISHED DATA AND A BARE LAMP SUM FOR
[MORE]THE LAMP UNDER TEST IN GONIOPHOTOMETER WITH TEST DISTANCE OF
[MORE]28.75 FT
[_NUMPASSES]1
TILT=NONE
1 2400 1 37 37 1 1 -0.697917 -0.697917 0.1
1 1 32.2
0 2.5 5 7.5 10 12.5 15 17.5 20 22.5
25 27.5 30 32.5 35 37.5 40 42.5 45 47.5
50 52.5 55 57.5 60 62.5 65 67.5 70 72.5
75 77.5 80 82.5 85 87.5 90
0 5 10 15 20 25 30 35 40 45
50 55 60 65 70 75 80 85 90 95
100 105 110 115 120 125 130 135 140 145
150 155 160 165 170 175 180
673 675 685 697 707 705 700 696 690 684
683 672 651 622 587 546 496 437 381 331
287 248 211 177 148 120 100 79 60 36
28 21 15 6 2 1 0
673 675 686 699 706 704 700 697 691 683
679 669 645 617 583 545 493 438 380 332
285 248 212 178 148 121 100 80 61 37
28 21 15 6 2 1 0
673 675 687 702 706 701 694 690 685 677
672 661 640 613 582 543 495 439 385 335
290 251 215 180 150 122 101 80 61 37
28 21 14 6 2 1 0
673 675 689 706 707 698 686 679 673 669
665 655 634 607 575 537 490 436 384 335
292 253 217 182 151 123 101 81 60 37
27 21 14 6 2 1 0
673 675 690 709 710 700 686 675 666 658
655 646 626 600 568 529 483 431 380 334
292 254 218 183 152 124 102 81 60 38
27 21 14 6 2 1 0
673 674 690 710 715 705 690 675 663 655
651 642 621 595 562 522 476 426 378 333
292 255 219 184 153 124 103 82 61 39
27 20 14 7 2 1 0
673 675 691 711 719 708 692 675 660 653
651 643 622 595 562 521 474 425 378 334
293 255 219 184 152 124 102 81 61 40
27 20 14 7 2 1 0
673 674 691 711 719 707 690 672 657 651
652 647 628 600 567 527 480 431 383 337
293 254 218 183 151 122 101 81 61 40
27 20 13 7 3 1 0
673 675 692 711 718 705 687 668 656 656
660 656 638 612 579 538 492 441 391 342
298 258 221 185 151 122 101 81 60 41
27 20 13 7 3 1 0
673 676 691 711 714 702 684 668 666 672
677 672 653 626 592 552 505 453 401 350
304 263 224 184 148 119 97 78 59 40
26 19 13 7 2 1 0
673 677 692 709 711 701 686 676 684 690
694 688 668 638 602 559 512 459 405 356
309 268 226 182 142 113 90 72 55 38
25 18 12 6 2 1 0
673 678 692 708 709 702 692 692 700 704
708 701 679 648 610 566 518 465 410 359
312 268 223 174 129 100 78 62 49 34
22 16 10 5 2 1 0
673 679 693 707 710 705 699 702 707 711
717 711 690 659 621 577 528 474 419 367
318 272 223 168 118 89 66 50 38 26
18 12 8 4 1 1 0
673 679 693 708 715 711 707 701 702 707
711 703 680 649 611 570 519 470 416 366
317 271 218 157 104 76 52 37 27 18
12 9 6 3 1 0 0
673 678 694 713 722 718 715 706 701 704
708 701 678 647 610 567 519 468 415 364
316 270 213 145 88 60 36 22 16 11
8 6 4 2 1 0 0
673 678 695 718 728 724 720 713 706 707
708 700 676 645 608 565 517 465 414 364
315 268 204 137 76 50 25 14 9 7
5 4 2 1 1 0 0
673 677 696 720 728 724 715 709 705 702
702 694 671 641 605 562 516 465 415 366
319 270 202 130 69 43 18 8 6 5
3 3 2 1 1 0 0
673 676 697 720 728 722 713 706 702 701
701 693 670 641 606 565 520 473 423 373
324 273 201 122 67 40 14 6 5 3
3 2 2 1 0 0 0
673 677 698 719 728 720 711 705 701 701
704 698 678 649 613 573 529 485 437 384
331 281 207 125 69 40 15 6 4 3
2 2 1 1 0 0 0
673 678 698 717 724 716 709 704 702 705
712 707 687 659 623 583 538 491 440 387
337 283 207 124 69 40 14 5 4 3
2 2 1 1 0 0 0
673 679 697 712 718 710 709 709 710 716
724 721 701 672 635 593 547 500 445 392
339 285 208 124 69 40 14 5 4 3
2 2 1 1 0 0 0
673 680 697 708 710 702 702 705 710 720
731 728 710 680 643 600 553 502 447 392
337 285 206 121 68 39 13 5 4 3
2 2 1 1 0 0 0
673 680 696 705 703 695 695 699 707 717
728 726 709 679 641 598 550 498 443 388
333 281 202 117 66 38 13 5 4 3
2 2 2 1 0 0 0
673 679 694 703 699 689 693 699 709 721
734 735 718 689 650 606 557 504 444 387
332 278 200 115 66 38 12 5 4 3
2 2 2 1 0 0 0
673 679 693 701 698 688 690 695 707 721
735 735 718 689 650 605 556 502 443 386
330 277 198 113 65 38 12 5 4 3
2 2 2 1 0 0 0
673 678 691 700 698 686 686 688 699 713
725 724 706 675 636 591 543 493 437 381
327 275 196 112 64 37 12 5 4 3
2 2 2 1 0 0 0
673 678 691 701 700 688 690 691 698 710
722 720 699 666 626 582 534 485 433 379
326 274 195 110 64 37 12 5 4 3
2 2 2 1 0 0 0
673 678 692 702 701 690 696 700 703 713
724 722 702 670 631 585 536 487 435 381
328 274 193 109 64 38 12 5 4 3
2 2 2 1 0 0 0
673 678 693 703 698 685 691 697 699 708
717 715 695 666 627 582 535 486 434 380
326 272 191 108 64 38 12 5 4 3
2 2 2 1 0 0 0
673 678 693 703 694 679 684 689 694 702
711 708 688 659 622 579 533 485 432 378
323 268 188 106 64 38 12 5 4 3
2 2 2 1 0 0 0
673 678 691 701 691 674 680 683 692 701
709 706 685 656 621 578 532 484 431 377
322 266 186 104 64 38 12 5 4 3
2 2 2 1 0 0 0
673 677 690 698 688 671 678 684 692 701
710 706 686 657 620 576 530 483 431 376
320 265 185 103 64 38 12 5 4 3
2 3 2 2 0 0 0
673 677 688 694 684 669 681 689 697 707
717 712 690 659 619 575 527 482 428 377
320 263 183 102 63 38 12 5 4 3
2 3 2 2 0 0 0
673 678 686 688 679 662 672 681 693 706
716 712 690 658 620 576 529 479 427 373
315 259 181 100 62 37 12 5 4 3
2 3 2 2 0 0 0
673 678 686 686 672 653 664 673 688 703
713 708 686 655 617 577 527 479 424 368
311 256 178 99 61 36 12 5 4 3
3 3 2 2 0 0 0
673 678 687 685 670 650 661 674 691 706
717 715 695 664 626 585 534 481 425 368
311 253 174 99 61 37 12 6 4 3
3 3 3 2 0 0 0
673 678 687 685 669 649 662 679 696 710
722 720 700 670 631 586 538 483 427 370
312 254 174 96 61 36 11 5 4 3
3 3 3 2 0 0 0
