IESNA:LM-63-2002
[TEST]P21912
[TESTLAB]Innovations Center P2
[ISSUEDATE]01/23/12
[MANUFAC] COOPER LIGHTING - HALO
[LUMCAT]PD6V142E-60VWWC_42TTT
[LUMINAIRE]6-INCH APERTURE OPEN WALL WASH DOWNLIGHT,
[MORE]VERTICAL LAMP. SPECULAR CLEAR TRIM WITH SPECULAR KICKER.
[LAMPCAT]CF42DT/E/IN/827 42 WATTS
[LAMP](1) GX24Q-4 FOUR PIN BASE TTT CFL LAMP
[BALLASTCAT]QTP2x26CF/UNV DM
[BALLAST](1) SYLVANIA ELECTRONIC BALLAST
[OTHER]INPUT WATTS: 43.22, AMPS:0.36042, VOLTS:120.01, BALLAST
[MORE]FACTOR: 1, HOURS OPERATED PRIOR TO TESTING: 12, STABILITY: 60
[MORE]MIN, TOTAL OP TIME: 13 HRS AMB TEMP: 24.8 DEG C
[_MOUNTING]RECESSED
[_WARNING TEST]THIS TEST WAS PERFORMED USING A SPECIFIC BALLAST \ LAMP
[MORE]COMBINATION. EXTRAPOLATION OF THESE DATA FOR OTHER
[MORE]BALLAST\LAMP COMBINATIONS MAY PRODUCE ERRONEOUS RESULTS
[_WARNING BALLAST]NOTE: BALLAST(S) FACTOR SHOULD BE APPLIED TO TEST DATA FOR
[MORE]ALL CALCULATIONS
[_WARNING REALATIVE]RELATIVE PHOTOMETRY IS BASED ON RELATIONAL FACTORS CREATED
[MORE]USING MANUFACTURERS PUBLISHED DATA AND A BARE LAMP SUM FOR
[MORE]THE LAMP UNDER TEST IN GONIOPHOTOMETER WITH TEST DISTANCE OF
[MORE]28.75 FT
[_NUMPASSES]1
TILT=NONE
1 3200 1 37 37 1 1 -0.697917 -0.697917 0.1
1 1 43.2
0 2.5 5 7.5 10 12.5 15 17.5 20 22.5
25 27.5 30 32.5 35 37.5 40 42.5 45 47.5
50 52.5 55 57.5 60 62.5 65 67.5 70 72.5
75 77.5 80 82.5 85 87.5 90
0 5 10 15 20 25 30 35 40 45
50 55 60 65 70 75 80 85 90 95
100 105 110 115 120 125 130 135 140 145
150 155 160 165 170 175 180
1154 1160 1176 1185 1159 1123 1071 1017 964 929
895 857 812 765 713 655 592 525 457 394
340 291 247 208 170 134 108 85 62 41
29 21 15 7 3 2 0
1154 1160 1175 1183 1158 1120 1070 1019 968 929
893 855 807 758 704 647 584 517 450 390
337 289 246 207 170 135 109 86 62 42
29 22 15 7 3 2 0
1154 1160 1173 1183 1162 1126 1081 1036 979 933
895 853 803 752 696 638 575 509 444 386
335 288 245 206 169 135 109 86 62 42
29 22 15 8 3 2 0
1154 1160 1172 1182 1166 1132 1089 1041 978 929
891 850 801 749 693 634 571 505 442 385
334 288 246 206 170 135 110 87 63 42
29 22 15 8 3 2 0
1154 1159 1170 1182 1168 1134 1088 1034 970 919
881 841 794 744 690 630 568 506 444 386
335 289 247 208 172 137 111 87 63 43
29 22 15 8 3 2 0
1154 1159 1170 1184 1167 1127 1073 1015 955 911
872 831 784 735 682 624 563 503 442 384
333 287 247 208 172 138 111 88 64 43
29 22 14 8 3 1 0
1154 1158 1171 1185 1166 1121 1061 1003 946 906
871 832 784 735 682 623 562 501 440 383
331 286 247 208 172 139 112 89 66 44
29 22 14 8 3 1 0
1154 1158 1173 1186 1169 1126 1067 1015 958 914
878 840 792 742 687 628 566 505 445 388
336 290 250 211 174 141 114 90 67 44
29 21 14 8 3 1 0
1154 1158 1176 1189 1175 1138 1086 1037 979 934
896 855 804 751 694 634 572 510 451 394
343 298 256 215 177 143 115 91 67 45
30 21 14 7 3 1 0
1154 1158 1179 1193 1183 1151 1101 1049 990 944
906 864 813 758 702 643 580 518 459 401
347 300 257 215 174 140 111 88 66 45
30 21 14 7 3 1 0
1154 1159 1184 1198 1189 1157 1106 1051 991 946
908 867 817 763 707 649 588 526 465 406
351 303 258 212 166 131 104 81 61 42
29 20 13 7 3 1 0
1154 1160 1187 1203 1191 1157 1108 1053 993 951
919 883 835 782 725 666 603 538 473 413
358 309 260 209 158 122 94 72 54 37
25 17 11 6 2 1 0
1154 1161 1189 1204 1189 1155 1108 1056 1002 966
940 906 859 805 746 686 623 557 489 426
367 314 258 202 144 109 80 59 45 29
20 14 9 5 2 1 0
1154 1162 1190 1200 1182 1149 1107 1061 1012 981
950 911 860 805 745 685 624 559 491 426
365 309 247 184 123 88 60 40 30 20
14 10 7 3 1 0 0
1154 1163 1190 1199 1180 1149 1110 1068 1020 982
948 907 853 797 737 677 616 553 486 422
361 305 239 169 104 70 43 24 17 12
9 6 4 2 1 0 0
1154 1164 1192 1202 1184 1150 1109 1064 1014 974
941 901 851 797 739 678 617 555 490 425
363 304 236 162 94 60 33 16 11 8
6 4 3 2 1 0 0
1154 1164 1193 1203 1183 1146 1100 1049 993 953
922 884 836 785 729 669 610 550 489 426
363 302 231 154 83 51 24 9 7 5
4 3 2 1 1 0 0
1154 1165 1193 1203 1184 1143 1096 1043 986 946
916 880 833 781 726 667 610 552 491 427
364 304 232 151 81 48 20 7 5 4
3 2 2 1 1 0 0
1154 1164 1192 1203 1185 1143 1094 1042 987 950
921 886 839 787 731 673 616 557 496 432
368 308 234 151 81 48 20 6 5 3
3 2 2 1 0 0 0
1154 1168 1192 1203 1182 1139 1090 1042 993 958
930 894 847 796 740 682 624 562 497 431
366 307 233 148 80 47 19 6 5 3
2 2 2 1 0 0 0
1154 1166 1188 1203 1188 1149 1100 1051 1005 971
942 906 860 808 750 691 631 568 500 432
364 304 231 145 79 46 19 6 4 3
2 2 2 1 0 0 0
1154 1166 1182 1197 1184 1153 1101 1060 1016 983
955 919 871 818 759 699 638 573 503 433
364 303 228 142 78 46 18 6 4 3
2 2 2 1 0 0 0
1154 1163 1177 1192 1182 1149 1103 1059 1017 985
957 921 873 818 759 698 636 572 502 432
361 299 224 139 76 45 18 6 4 3
2 2 2 1 0 0 0
1154 1167 1180 1191 1179 1148 1111 1071 1031 1000
974 940 892 834 773 710 647 581 506 434
362 299 222 136 75 44 18 6 4 3
2 2 2 1 0 0 0
1154 1168 1184 1191 1174 1143 1113 1075 1034 1005
981 948 892 839 777 714 651 585 509 436
363 299 221 135 75 44 17 5 4 3
2 2 2 2 0 0 0
1154 1169 1188 1192 1166 1128 1097 1059 1017 988
963 931 882 825 763 702 641 577 505 434
361 297 219 132 73 43 16 6 4 3
2 2 2 2 0 0 0
1154 1170 1192 1195 1162 1117 1081 1042 1002 974
950 919 871 817 758 698 639 577 505 434
362 297 218 131 74 43 17 6 4 3
2 2 2 2 0 0 0
1154 1171 1194 1196 1155 1103 1064 1022 983 957
935 901 854 807 750 692 628 574 504 433
362 297 217 129 73 43 17 6 5 3
2 2 2 2 0 0 0
1154 1171 1196 1196 1152 1094 1054 1011 969 943
921 886 838 791 735 678 617 558 498 430
361 295 215 128 73 43 16 6 5 3
2 2 2 2 0 0 0
1154 1171 1196 1195 1148 1088 1050 1005 963 937
914 878 829 776 720 668 607 557 488 421
359 294 214 125 72 43 16 6 5 4
3 3 2 2 0 0 0
1154 1171 1195 1193 1144 1082 1046 1002 959 932
910 874 824 771 714 662 606 550 484 425
358 292 212 123 72 43 16 6 5 4
3 3 3 2 0 0 0
1154 1170 1193 1189 1139 1076 1040 997 955 929
907 870 821 769 713 655 600 543 483 417
349 289 209 122 68 44 17 6 5 4
3 3 3 3 0 0 0
1154 1169 1190 1184 1134 1072 1036 994 956 931
909 872 825 773 717 659 603 545 483 417
347 280 198 113 68 44 17 6 5 4
3 3 3 3 0 0 0
1154 1168 1186 1181 1134 1076 1041 1003 969 945
922 886 838 784 727 668 609 550 485 417
345 277 196 111 68 44 17 6 5 4
3 3 3 3 1 0 0
1154 1167 1179 1177 1137 1087 1055 1020 988 964
939 900 849 793 733 672 612 550 484 414
343 276 194 110 67 44 14 6 5 4
3 3 3 3 1 0 0
1154 1166 1170 1170 1140 1099 1070 1036 1005 981
955 914 859 800 737 674 612 549 483 412
341 282 201 116 70 44 17 7 5 4
3 3 3 3 1 0 0
1154 1166 1166 1166 1140 1105 1079 1047 1019 996
970 928 870 810 747 682 620 556 489 417
343 277 194 110 68 42 14 6 5 4
3 3 3 3 1 0 0
