IESNA:LM-63-1995
[TEST]     19147
[MANUFAC]COOPER LIGHTING - SHAPER                                
[LUMCAT]603-CF4/13                                                                      
[LUMINAIRE]INTERIOR WALL MOUNT LUMINAIRE WITH WHITE INTERIOR AND WHITE PLASTIC LENS                                      
[LAMP]FOUR SYLVANIA 13 WATT CPFL LAMPS                                                
[LAMPCAT]CF13DS/E/830. LUMEN RATING = 3200 LMS.                                          
[OTHER]TWO UNIVERSAL CT213UNVSE BALLASTS OPERATING AT 120 VAC AND 54 WATTS             
TILT=NONE
1
      3200
1
73
17
1
1
  0.34
  2.21
  0.34
1
1
   54.0000
0 2.5 5 7.5 10 12.5 15 17.5 20 22.5 25 27.5 30 32.5 35 37.5
40 42.5 45 47.5 50 52.5 55 57.5 60 62.5 65 67.5 70 72.5 75
77.5 80 82.5 85 87.5 90 92.5 95 97.5 100 102.5 105 107.5 110
112.5 115 117.5 120 122.5 125 127.5 130 132.5 135 137.5 140
142.5 145 147.5 150 152.5 155 157.5 160 162.5 165 167.5 170
172.5 175 177.5 180
0 22.5 45 67.5 90 112.5 135 157.5 180 202.5 225 247.5
270 292.5 315 337.5 360
     195.0      197.8      197.0      195.9      194.1      192.2      190.4      187.5      183.8      180.8
     176.7      172.1      167.6      162.8      157.2      151.7      145.6      139.4      132.8      126.2
     119.5      112.4      105.4       98.0       90.4       83.2       75.5       68.0       61.3       54.8
      47.9       41.1       35.0       28.9       24.1       19.1       16.0       24.7       51.9       80.9
     108.4      127.8      144.5      159.7      175.3      189.3      202.6      217.0      230.0      241.9
     253.5      263.8      273.7      282.9      291.2      298.6      306.5      313.8      320.4      326.4
     332.3      337.3      341.1      343.5      345.4      347.9      349.3      351.1      352.4      353.4
     354.2      354.0      357.0
     195.0      198.8      202.5      204.8      206.9      208.3      208.5      209.1      209.3      208.5
     207.0      205.6      203.3      200.3      197.4      193.3      188.8      185.1      180.1      174.4
     169.2      163.5      157.1      151.0      144.0      136.6      130.4      123.4      116.6      108.8
     102.7       96.3       89.9       84.0       78.4       72.0       66.7       66.1      113.1      170.8
     228.8      271.2      300.3      323.9      346.7      364.8      380.7      393.8      405.3      415.4
     422.1      427.7      431.4      433.3      434.1      435.1      435.5      433.5      433.1      432.8
     431.4      427.5      422.0      415.4      408.2      402.0      396.9      389.9      383.8      376.4
     369.1      361.7      357.0
     195.0      199.0      203.9      208.7      213.0      217.3      220.2      222.3      223.3      224.9
     224.9      225.3      224.9      224.3      223.1      220.6      219.0      216.7      213.2      210.1
     206.6      202.7      198.2      193.3      188.1      183.0      177.2      171.1      165.5      159.8
     154.0      147.7      141.9      136.3      130.8      125.1      119.7      116.1      129.6      164.9
     225.1      284.7      344.5      407.2      462.5      501.7      529.9      551.4      566.0      576.9
     583.9      587.2      587.9      586.1      582.5      575.6      566.8      556.7      544.6      533.5
     520.6      506.6      492.0      477.6      463.6      449.1      434.3      419.7      407.0      393.0
     379.2      366.1      357.0
     195.0      199.2      206.4      212.2      217.9      222.4      226.1      229.0      232.5      234.8
     237.1      238.9      240.1      240.9      241.4      241.1      240.4      239.5      238.1      235.8
     234.1      231.5      228.2      224.9      221.0      216.7      212.6      207.6      202.7      196.3
     191.2      185.5      179.7      174.0      168.4      162.7      156.7      153.4      163.7      180.3
     217.9      275.0      338.9      394.9      457.5      519.5      572.5      614.4      643.2      663.2
     673.4      679.4      681.0      678.6      672.0      662.2      650.2      635.7      618.6      600.7
     581.2      560.7      540.1      518.9      500.1      479.7      459.2      439.6      421.3      404.0
     386.6      370.2      357.0
     195.0      195.9      203.9      210.1      215.9      220.0      225.1      228.6      231.1      234.5
     236.8      238.3      241.1      241.5      242.5      243.0      243.2      242.0      241.4      240.4
     238.5      236.7      233.4      231.1      228.0      224.3      220.0      215.7      211.2      205.2
     200.5      194.5      188.3      183.0      176.4      171.1      166.4      168.7      178.5      192.6
     221.0      269.1      330.7      388.5      449.1      509.5      566.6      617.0      653.3      678.8
     693.4      702.0      704.1      699.8      692.8      682.3      668.9      653.5      634.8      616.6
     595.6      574.4      552.7      530.6      510.5      489.1      468.0      446.8      429.0      410.0
     392.2      374.3      357.0
     195.0      199.2      206.4      212.2      217.9      222.4      226.1      229.0      232.5      234.8
     237.1      238.9      240.1      240.9      241.4      241.1      240.4      239.5      238.1      235.8
     234.1      231.5      228.2      224.9      221.0      216.7      212.6      207.6      202.7      196.3
     191.2      185.5      179.7      174.0      168.4      162.7      156.7      153.4      163.7      180.3
     217.9      275.0      338.9      394.9      457.5      519.5      572.5      614.4      643.2      663.2
     673.4      679.4      681.0      678.6      672.0      662.2      650.2      635.7      618.6      600.7
     581.2      560.7      540.1      518.9      500.1      479.7      459.2      439.6      421.3      404.0
     386.6      370.2      357.0
     195.0      199.0      203.9      208.7      213.0      217.3      220.2      222.3      223.3      224.9
     224.9      225.3      224.9      224.3      223.1      220.6      219.0      216.7      213.2      210.1
     206.6      202.7      198.2      193.3      188.1      183.0      177.2      171.1      165.5      159.8
     154.0      147.7      141.9      136.3      130.8      125.1      119.7      116.1      129.6      164.9
     225.1      284.7      344.5      407.2      462.5      501.7      529.9      551.4      566.0      576.9
     583.9      587.2      587.9      586.1      582.5      575.6      566.8      556.7      544.6      533.5
     520.6      506.6      492.0      477.6      463.6      449.1      434.3      419.7      407.0      393.0
     379.2      366.1      357.0
     195.0      198.8      202.5      204.8      206.9      208.3      208.5      209.1      209.3      208.5
     207.0      205.6      203.3      200.3      197.4      193.3      188.8      185.1      180.1      174.4
     169.2      163.5      157.1      151.0      144.0      136.6      130.4      123.4      116.6      108.8
     102.7       96.3       89.9       84.0       78.4       72.0       66.7       66.1      113.1      170.8
     228.8      271.2      300.3      323.9      346.7      364.8      380.7      393.8      405.3      415.4
     422.1      427.7      431.4      433.3      434.1      435.1      435.5      433.5      433.1      432.8
     431.4      427.5      422.0      415.4      408.2      402.0      396.9      389.9      383.8      376.4
     369.1      361.7      357.0
     195.0      197.8      197.0      195.9      194.1      192.2      190.4      187.5      183.8      180.8
     176.7      172.1      167.6      162.8      157.2      151.7      145.6      139.4      132.8      126.2
     119.5      112.4      105.4       98.0       90.4       83.2       75.5       68.0       61.3       54.8
      47.9       41.1       35.0       28.9       24.1       19.1       16.0       24.7       51.9       80.9
     108.4      127.8      144.5      159.7      175.3      189.3      202.6      217.0      230.0      241.9
     253.5      263.8      273.7      282.9      291.2      298.6      306.5      313.8      320.4      326.4
     332.3      337.3      341.1      343.5      345.4      347.9      349.3      351.1      352.4      353.4
     354.2      354.0      357.0
     195.0      195.1      192.9      190.8      187.9      184.8      181.4      177.5      173.1      169.7
     165.5      160.2      155.7      151.0      145.6      139.0      133.3      127.9      123.2      118.2
     112.3      105.7       97.1       88.1       79.3       70.0       61.8       53.5       45.1       37.3
      30.0       23.3       17.6       13.3       10.6        8.6        9.3       13.9       33.4       64.6
     103.3      136.6      166.5      196.8      229.7      260.2      287.8      312.1      330.7      345.9
     358.7      368.1      375.5      379.6      382.5      383.9      384.4      384.5      383.8      384.2
     383.3      382.1      378.4      374.7      369.1      364.7      359.9      355.4      351.3      349.6
     349.8      352.3      357.0
     195.0      192.5      189.4      187.1      183.8      181.1      177.8      174.8      171.5      167.6
     163.9      159.6      157.1      153.8      149.5      142.5      134.3      125.5      116.2      106.8
      97.3       88.3       79.0       69.8       61.2       52.3       43.7       35.3       27.0       19.7
      13.3        8.2        4.9        3.4        3.2        2.8        5.0       10.4       24.1       43.3
      66.7       97.3      132.5      162.7      192.5      221.3      252.6      286.1      319.5      352.5
     380.5      404.7      422.8      436.4      445.4      449.7      450.1      448.9      444.4      438.6
     431.8      423.4      414.3      405.9      396.7      387.2      378.0      369.0      360.3      352.9
     349.6      351.1      357.0
     195.0      190.8      188.3      185.2      183.0      180.1      178.1      175.4      172.3      169.4
     168.8      165.3      160.6      153.6      144.6      134.9      125.6      116.1      107.0       98.0
      87.4       77.6       68.3       58.7       49.5       40.4       31.6       24.1       17.4       11.2
       6.9        3.4        1.6        1.8        1.3        2.2        4.5        9.8       19.0       33.0
      50.7       69.3       96.5      127.3      159.6      188.1      218.6      249.4      281.6      315.5
     348.2      380.5      408.0      431.7      448.5      461.0      467.2      468.6      467.2      461.8
     453.2      443.3      432.7      421.6      409.6      397.9      386.4      374.7      363.8      354.0
     349.0      349.4      357.0
     195.0      191.0      188.1      185.5      183.6      180.9      178.7      176.0      174.1      172.7
     171.7      167.8      161.8      153.2      143.6      133.1      123.2      112.5      102.8       92.8
      82.1       72.5       62.8       53.5       44.3       35.8       26.7       20.4       14.5        9.0
       5.3        2.2        1.2        1.2        0.8        1.8        4.0        9.6       16.6       27.7
      42.7       58.9       80.5      107.2      138.4      168.4      198.6      229.2      260.5      293.7
     326.8      359.7      388.5      413.7      433.7      448.5      456.9      460.8      460.6      457.1
     451.1      442.5      433.1      422.1      411.0      400.0      388.2      377.5      366.7      358.1
     354.0      354.4      357.0
     195.0      190.8      188.3      185.2      183.0      180.1      178.1      175.4      172.3      169.4
     168.8      165.3      160.6      153.6      144.6      134.9      125.6      116.1      107.0       98.0
      87.4       77.6       68.3       58.7       49.5       40.4       31.6       24.1       17.4       11.2
       6.9        3.4        1.6        1.8        1.3        2.2        4.5        9.8       19.0       33.0
      50.7       69.3       96.5      127.3      159.6      188.1      218.6      249.4      281.6      315.5
     348.2      380.5      408.0      431.7      448.5      461.0      467.2      468.6      467.2      461.8
     453.2      443.3      432.7      421.6      409.6      397.9      386.4      374.7      363.8      354.0
     349.0      349.4      357.0
     195.0      192.5      189.4      187.1      183.8      181.1      177.8      174.8      171.5      167.6
     163.9      159.6      157.1      153.8      149.5      142.5      134.3      125.5      116.2      106.8
      97.3       88.3       79.0       69.8       61.2       52.3       43.7       35.3       27.0       19.7
      13.3        8.2        4.9        3.4        3.2        2.8        5.0       10.4       24.1       43.3
      66.7       97.3      132.5      162.7      192.5      221.3      252.6      286.1      319.5      352.5
     380.5      404.7      422.8      436.4      445.4      449.7      450.1      448.9      444.4      438.6
     431.8      423.4      414.3      405.9      396.7      387.2      378.0      369.0      360.3      352.9
     349.6      351.1      357.0
     195.0      195.1      192.9      190.8      187.9      184.8      181.4      177.5      173.1      169.7
     165.5      160.2      155.7      151.0      145.6      139.0      133.3      127.9      123.2      118.2
     112.3      105.7       97.1       88.1       79.3       70.0       61.8       53.5       45.1       37.3
      30.0       23.3       17.6       13.3       10.6        8.6        9.3       13.9       33.4       64.6
     103.3      136.6      166.5      196.8      229.7      260.2      287.8      312.1      330.7      345.9
     358.7      368.1      375.5      379.6      382.5      383.9      384.4      384.5      383.8      384.2
     383.3      382.1      378.4      374.7      369.1      364.7      359.9      355.4      351.3      349.6
     349.8      352.3      357.0
     195.0      197.8      197.0      195.9      194.1      192.2      190.4      187.5      183.8      180.8
     176.7      172.1      167.6      162.8      157.2      151.7      145.6      139.4      132.8      126.2
     119.5      112.4      105.4       98.0       90.4       83.2       75.5       68.0       61.3       54.8
      47.9       41.1       35.0       28.9       24.1       19.1       16.0       24.7       51.9       80.9
     108.4      127.8      144.5      159.7      175.3      189.3      202.6      217.0      230.0      241.9
     253.5      263.8      273.7      282.9      291.2      298.6      306.5      313.8      320.4      326.4
     332.3      337.3      341.1      343.5      345.4      347.9      349.3      351.1      352.4      353.4
     354.2      354.0      357.0
