IESNA:LM-63-1995
[TEST]    20060A
[MANUFAC]COOPER LIGHTING - SHAPER                                 
[LUMCAT]691-CF2/26                                                                      
[LUMINAIRE]INTERIOR WALL MOUNT LUMINAIRE WHITE BACK AND COPPER BOWL INTERIOR WITH NO LENS                                
[LAMP]TWO 26 WATT CPFL LAMPS. LUMEN RATING = 3600 LMS.                                
[OTHER]SIMULATED REPORT FROM TEST WITH 2 - 32 WATT LAMPS                               
TILT=NONE
1
      3600
1
73
17
1
1
  0.00
  0.00
  0.00
1
1
    0.0000
0 2.5 5 7.5 10 12.5 15 17.5 20 22.5 25 27.5 30 32.5 35 37.5
40 42.5 45 47.5 50 52.5 55 57.5 60 62.5 65 67.5 70 72.5 75
77.5 80 82.5 85 87.5 90 92.5 95 97.5 100 102.5 105 107.5 110
112.5 115 117.5 120 122.5 125 127.5 130 132.5 135 137.5 140
142.5 145 147.5 150 152.5 155 157.5 160 162.5 165 167.5 170
172.5 175 177.5 180
0 22.5 45 67.5 90 112.5 135 157.5 180 202.5 225 247.5
270 292.5 315 337.5 360
       2.0        0.8        0.5        0.3        0.0        0.0        0.0        0.0        0.0        0.0
       0.0        0.0        0.0        0.0        0.0        0.0        0.0        0.0        0.0        0.0
       0.0        0.0        0.0        0.0        0.0        0.0        0.0        0.0        0.0        0.0
       0.0        0.0        0.0        0.0        0.0        0.0        0.0        0.0        0.0        0.0
       0.0        0.0        0.0        0.0        0.0        0.0        0.0        0.0        0.0        0.0
       0.0        0.0        0.0        0.0        0.0        0.0        0.0        0.0        0.0        0.0
       0.0        0.0        0.0        0.0        0.0        0.0        0.0        0.0        0.0        0.0
       0.0        0.0        0.1
       2.0        0.9        0.5        0.3        0.6        0.0        0.1        0.0        0.0        0.0
       0.0        0.0        0.0        0.0        0.0        0.0        0.0        0.0        0.0        0.0
       0.0        0.0        0.0        0.0        0.0        0.0        0.0        0.0        0.0        0.0
       0.0        0.0        0.0        0.0        0.0        0.0        0.0        0.0        0.0        0.0
       0.0        0.0        0.0        0.0        0.0        0.0        0.0        0.0        0.0        0.0
       0.0        0.0        0.0        0.0        0.0        0.0        0.0        0.0        0.0        0.0
       0.0        0.0        0.0        0.0        0.0        0.0        0.0        0.0        0.0        0.0
       0.0        0.0        0.1
       2.0        0.5        0.8        0.6        0.5        0.0        0.2        0.1        0.0        0.0
       0.0        0.0        0.0        0.0        0.0        0.0        0.0        0.0        0.0        0.0
       0.0        0.0        0.0        0.0        0.0        0.0        0.0        0.0        0.0        0.0
       0.0        0.0        0.0        0.0        0.0        0.0        0.0        0.0        0.0        0.0
       0.0        0.0        0.0        0.0        0.0        0.0        0.0        0.0        0.0        0.0
       0.0        0.0        0.0        0.0        0.0        0.0        0.0        0.0        0.0        0.0
       0.0        0.0        0.0        0.0        0.0        0.0        0.0        0.0        0.0        0.0
       0.0        0.1        0.1
       2.0        2.0        2.5        2.4        2.3        2.1        2.2        2.0        2.0        1.8
       1.8        1.1        1.5        1.5        1.4        1.0        1.1        1.1        1.0        0.6
       0.9        0.9        0.2        0.2        0.5        0.4        0.6        0.5        0.4        0.4
       0.4        0.3        0.1        0.3        0.3        0.0        0.0        0.0        0.0        0.0
       0.0        0.0        0.0        0.0        0.0        0.0        0.0        0.0        0.0        0.0
       0.0        0.0        0.0        0.0        0.0        0.0        0.0        0.0        0.0        0.0
       0.0        0.0        0.0        0.0        0.0        0.0        0.0        0.0        0.0        0.1
       0.1        0.0        0.1
       2.0        3.6        3.5        3.2        3.7        3.3        3.5        3.4        3.4        3.7
       3.6        3.4        3.6        3.5        3.4        3.5        3.4        3.4        3.4        3.3
       3.0        2.9        2.9        3.0        2.6        2.7        2.7        2.8        2.7        2.7
       2.7        2.6        2.6        2.2        2.3        2.4        2.4        0.6        0.6        0.4
       0.6        0.4        0.7        0.4        0.5        0.5        0.6        0.5        0.6        0.6
       0.5        0.6        0.5        0.5        0.3        0.1        0.2        0.3        0.1        0.3
       0.1        0.4        0.3        0.4        0.1        0.0        0.1        0.1        0.2        0.3
       0.1        0.2        0.1
       2.0        2.9        3.3        3.9        6.9       10.8       19.3       28.2       35.7       41.7
      46.7       53.9       62.9       72.6       79.4       83.1       84.5       82.6       78.8       73.6
      70.0       64.6       59.1       52.1       44.1       36.7       30.8       26.4       23.0       21.6
      20.6       21.0       21.2       22.5       23.0       24.4       25.1       37.4       35.6       34.6
      33.1       32.5       31.1       31.5       32.0       34.1       36.5       40.0       44.0       49.0
      53.9       59.3       64.7       70.2       73.6       74.8       74.0       71.6       68.1       62.0
      55.1       47.3       42.6       37.7       32.1       27.7       18.6        9.4        5.7        2.0
       0.9        0.0        0.1
       2.0        1.8        6.7       16.0       32.9       44.9       57.3       75.1       87.9       97.6
     103.5      107.7      106.5      100.6       88.8       75.9       63.3       50.6       40.1       31.3
      23.9       21.6       21.6       22.7       23.9       25.5       27.7       29.3       31.5       34.4
      36.9       39.4       41.5       43.2       44.4       44.4       43.9       46.0       45.6       44.5
      42.5       40.7       38.4       36.7       34.7       33.7       32.2       31.1       29.4       28.7
      28.2       27.2       27.5       29.8       35.4       41.0       48.3       56.9       66.0       74.3
      80.9       80.5       75.6       70.2       63.7       55.4       43.7       34.0       22.1        8.6
       2.6        0.7        0.1
       2.0        4.3       14.4       34.4       52.2       72.3       92.0      105.2      113.7      120.8
     116.8      103.7       89.0       74.8       61.8       50.1       41.0       33.4       33.2       36.5
      41.1       46.9       54.0       60.4       69.2       78.7       91.6      104.4      117.5      131.4
     144.5      157.7      166.4      171.9      172.1      169.0      161.7      170.9      168.8      163.9
     155.0      143.3      131.1      119.6      109.1       99.2       91.0       83.2       77.0       70.6
      64.6       57.9       51.9       45.4       40.3       36.0       36.1       41.4       46.8       54.7
      62.6       71.9       81.5       83.0       76.6       70.1       61.5       46.0       32.8       16.8
       4.4        0.1        0.1
       2.0        5.6       19.6       40.8       60.7       85.3      101.7      113.8      122.3      122.4
     110.3       95.2       80.1       65.3       53.6       43.5       36.9       37.0       41.7       48.4
      57.8       68.8       81.8       97.4      113.5      128.0      141.9      152.9      164.6      175.0
     186.2      200.8      213.1      222.1      223.4      220.3      217.9      214.8      211.5      199.8
     181.1      165.2      155.4      148.3      140.1      132.2      122.8      113.3      102.8       90.6
      80.0       69.4       61.1       52.7       45.1       39.6       36.6       39.7       47.8       55.6
      67.2       79.0       92.0      100.1       96.0       86.7       74.9       59.0       40.7       23.2
       5.4        0.8        0.1
       2.0        4.3       14.4       34.4       52.2       72.3       92.0      105.2      113.7      120.8
     116.8      103.7       89.0       74.8       61.8       50.1       41.0       33.4       33.2       36.5
      41.1       46.9       54.0       60.4       69.2       78.7       91.6      104.4      117.5      131.4
     144.5      157.7      166.4      171.9      172.1      169.0      161.7      170.9      168.8      163.9
     155.0      143.3      131.1      119.6      109.1       99.2       91.0       83.2       77.0       70.6
      64.6       57.9       51.9       45.4       40.3       36.0       36.1       41.4       46.8       54.7
      62.6       71.9       81.5       83.0       76.6       70.1       61.5       46.0       32.8       16.8
       4.4        0.1        0.1
       2.0        1.8        6.7       16.0       32.9       44.9       57.3       75.1       87.9       97.6
     103.5      107.7      106.5      100.6       88.8       75.9       63.3       50.6       40.1       31.3
      23.9       21.6       21.6       22.7       23.9       25.5       27.7       29.3       31.5       34.4
      36.9       39.4       41.5       43.2       44.4       44.4       43.9       46.0       45.6       44.5
      42.5       40.7       38.4       36.7       34.7       33.7       32.2       31.1       29.4       28.7
      28.2       27.2       27.5       29.8       35.4       41.0       48.3       56.9       66.0       74.3
      80.9       80.5       75.6       70.2       63.7       55.4       43.7       34.0       22.1        8.6
       2.6        0.7        0.1
       2.0        2.9        3.3        3.9        6.9       10.8       19.3       28.2       35.7       41.7
      46.7       53.9       62.9       72.6       79.4       83.1       84.5       82.6       78.8       73.6
      70.0       64.6       59.1       52.1       44.1       36.7       30.8       26.4       23.0       21.6
      20.6       21.0       21.2       22.5       23.0       24.4       25.1       37.4       35.6       34.6
      33.1       32.5       31.1       31.5       32.0       34.1       36.5       40.0       44.0       49.0
      53.9       59.3       64.7       70.2       73.6       74.8       74.0       71.6       68.1       62.0
      55.1       47.3       42.6       37.7       32.1       27.7       18.6        9.4        5.7        2.0
       0.9        0.0        0.1
       2.0        3.6        3.5        3.2        3.7        3.3        3.5        3.4        3.4        3.7
       3.6        3.4        3.6        3.5        3.4        3.5        3.4        3.4        3.4        3.3
       3.0        2.9        2.9        3.0        2.6        2.7        2.7        2.8        2.7        2.7
       2.7        2.6        2.6        2.2        2.3        2.4        2.4        0.6        0.6        0.4
       0.6        0.4        0.7        0.4        0.5        0.5        0.6        0.5        0.6        0.6
       0.5        0.6        0.5        0.5        0.3        0.1        0.2        0.3        0.1        0.3
       0.1        0.4        0.3        0.4        0.1        0.0        0.1        0.1        0.2        0.3
       0.1        0.2        0.1
       2.0        2.0        2.5        2.4        2.3        2.1        2.2        2.0        2.0        1.8
       1.8        1.1        1.5        1.5        1.4        1.0        1.1        1.1        1.0        0.6
       0.9        0.9        0.2        0.2        0.5        0.4        0.6        0.5        0.4        0.4
       0.4        0.3        0.1        0.3        0.3        0.0        0.0        0.0        0.0        0.0
       0.0        0.0        0.0        0.0        0.0        0.0        0.0        0.0        0.0        0.0
       0.0        0.0        0.0        0.0        0.0        0.0        0.0        0.0        0.0        0.0
       0.0        0.0        0.0        0.0        0.0        0.0        0.0        0.0        0.0        0.1
       0.1        0.0        0.1
       2.0        0.5        0.8        0.6        0.5        0.0        0.2        0.1        0.0        0.0
       0.0        0.0        0.0        0.0        0.0        0.0        0.0        0.0        0.0        0.0
       0.0        0.0        0.0        0.0        0.0        0.0        0.0        0.0        0.0        0.0
       0.0        0.0        0.0        0.0        0.0        0.0        0.0        0.0        0.0        0.0
       0.0        0.0        0.0        0.0        0.0        0.0        0.0        0.0        0.0        0.0
       0.0        0.0        0.0        0.0        0.0        0.0        0.0        0.0        0.0        0.0
       0.0        0.0        0.0        0.0        0.0        0.0        0.0        0.0        0.0        0.0
       0.0        0.1        0.1
       2.0        0.9        0.5        0.3        0.6        0.0        0.1        0.0        0.0        0.0
       0.0        0.0        0.0        0.0        0.0        0.0        0.0        0.0        0.0        0.0
       0.0        0.0        0.0        0.0        0.0        0.0        0.0        0.0        0.0        0.0
       0.0        0.0        0.0        0.0        0.0        0.0        0.0        0.0        0.0        0.0
       0.0        0.0        0.0        0.0        0.0        0.0        0.0        0.0        0.0        0.0
       0.0        0.0        0.0        0.0        0.0        0.0        0.0        0.0        0.0        0.0
       0.0        0.0        0.0        0.0        0.0        0.0        0.0        0.0        0.0        0.0
       0.0        0.0        0.1
       2.0        0.8        0.5        0.3        0.0        0.0        0.0        0.0        0.0        0.0
       0.0        0.0        0.0        0.0        0.0        0.0        0.0        0.0        0.0        0.0
       0.0        0.0        0.0        0.0        0.0        0.0        0.0        0.0        0.0        0.0
       0.0        0.0        0.0        0.0        0.0        0.0        0.0        0.0        0.0        0.0
       0.0        0.0        0.0        0.0        0.0        0.0        0.0        0.0        0.0        0.0
       0.0        0.0        0.0        0.0        0.0        0.0        0.0        0.0        0.0        0.0
       0.0        0.0        0.0        0.0        0.0        0.0        0.0        0.0        0.0        0.0
       0.0        0.0        0.1
