IESNA:LM-63-1995
[TEST]     20060
[MANUFAC]COOPER LIGHTING - SHAPER                                
[LUMCAT]691-CF2/32                                                                      
[LUMINAIRE]INTERIOR WALL MOUNT LUMINAIRE WITH WHITE BACK AND COPPER BOWL INTERIOR WITH NO LENS                                
[LAMP]TWO SYLVANIA 32 WATT CPFL LAMPS                                                 
[LAMPCAT]CF32DT/E/841. LUMEN RATING = 4800 LMS.                                          
[OTHER]ONE UNIVERSAL C242UNVSE BALLAST OPERATING AT 120 VAC AND 59 WATTS               
TILT=NONE
1
      4800
1
73
17
1
1
  0.00
  0.00
  0.00
1
1
   59.0000
0 2.5 5 7.5 10 12.5 15 17.5 20 22.5 25 27.5 30 32.5 35 37.5
40 42.5 45 47.5 50 52.5 55 57.5 60 62.5 65 67.5 70 72.5 75
77.5 80 82.5 85 87.5 90 92.5 95 97.5 100 102.5 105 107.5 110
112.5 115 117.5 120 122.5 125 127.5 130 132.5 135 137.5 140
142.5 145 147.5 150 152.5 155 157.5 160 162.5 165 167.5 170
172.5 175 177.5 180
0 22.5 45 67.5 90 112.5 135 157.5 180 202.5 225 247.5
270 292.5 315 337.5 360
       2.6        1.1        0.7        0.4        0.0        0.0        0.0        0.0        0.0        0.0
       0.0        0.0        0.0        0.0        0.0        0.0        0.0        0.0        0.0        0.0
       0.0        0.0        0.0        0.0        0.0        0.0        0.0        0.0        0.0        0.0
       0.0        0.0        0.0        0.0        0.0        0.0        0.0        0.0        0.0        0.0
       0.0        0.0        0.0        0.0        0.0        0.0        0.0        0.0        0.0        0.0
       0.0        0.0        0.0        0.0        0.0        0.0        0.0        0.0        0.0        0.0
       0.0        0.0        0.0        0.0        0.0        0.0        0.0        0.0        0.0        0.0
       0.0        0.0        0.1
       2.6        1.2        0.7        0.3        0.9        0.0        0.1        0.0        0.0        0.0
       0.0        0.0        0.0        0.0        0.0        0.0        0.0        0.0        0.0        0.0
       0.0        0.0        0.0        0.0        0.0        0.0        0.0        0.0        0.0        0.0
       0.0        0.0        0.0        0.0        0.0        0.0        0.0        0.0        0.0        0.0
       0.0        0.0        0.0        0.0        0.0        0.0        0.0        0.0        0.0        0.0
       0.0        0.0        0.0        0.0        0.0        0.0        0.0        0.0        0.0        0.0
       0.0        0.0        0.0        0.0        0.0        0.0        0.0        0.0        0.0        0.0
       0.0        0.0        0.1
       2.6        0.7        1.1        0.9        0.7        0.0        0.3        0.2        0.0        0.0
       0.0        0.0        0.0        0.0        0.0        0.0        0.0        0.0        0.0        0.0
       0.0        0.0        0.0        0.0        0.0        0.0        0.0        0.0        0.0        0.0
       0.0        0.0        0.0        0.0        0.0        0.0        0.0        0.0        0.0        0.0
       0.0        0.0        0.0        0.0        0.0        0.0        0.0        0.0        0.0        0.0
       0.0        0.0        0.0        0.0        0.0        0.0        0.0        0.0        0.0        0.0
       0.0        0.0        0.0        0.0        0.0        0.0        0.0        0.0        0.0        0.0
       0.0        0.1        0.1
       2.6        2.6        3.3        3.2        3.0        2.8        2.9        2.7        2.6        2.4
       2.4        1.5        1.9        1.9        1.9        1.3        1.5        1.5        1.3        0.8
       1.2        1.2        0.3        0.3        0.7        0.5        0.8        0.7        0.5        0.6
       0.5        0.3        0.2        0.4        0.3        0.0        0.0        0.0        0.0        0.0
       0.0        0.0        0.0        0.0        0.0        0.0        0.0        0.0        0.0        0.0
       0.0        0.0        0.0        0.0        0.0        0.0        0.0        0.0        0.0        0.0
       0.0        0.0        0.0        0.0        0.0        0.0        0.0        0.0        0.0        0.1
       0.1        0.0        0.1
       2.6        4.8        4.6        4.3        4.9        4.4        4.6        4.5        4.6        4.9
       4.8        4.5        4.8        4.6        4.5        4.7        4.6        4.5        4.5        4.4
       4.0        3.9        3.9        4.0        3.4        3.6        3.6        3.7        3.6        3.6
       3.6        3.4        3.5        3.0        3.0        3.2        3.2        0.8        0.8        0.6
       0.8        0.5        0.9        0.5        0.7        0.6        0.8        0.7        0.9        0.8
       0.7        0.8        0.7        0.7        0.3        0.1        0.3        0.3        0.1        0.3
       0.1        0.6        0.3        0.5        0.2        0.0        0.1        0.2        0.2        0.4
       0.2        0.2        0.1
       2.6        3.9        4.4        5.3        9.2       14.3       25.7       37.6       47.6       55.6
      62.3       71.8       83.9       96.8      105.9      110.8      112.7      110.1      105.1       98.2
      93.3       86.1       78.8       69.5       58.8       48.9       41.1       35.2       30.7       28.8
      27.5       28.0       28.3       30.0       30.7       32.5       33.4       49.8       47.5       46.1
      44.1       43.3       41.5       42.0       42.7       45.4       48.7       53.3       58.7       65.4
      71.8       79.1       86.3       93.6       98.2       99.7       98.6       95.5       90.8       82.7
      73.5       63.1       56.8       50.3       42.8       37.0       24.7       12.5        7.6        2.7
       1.2        0.0        0.1
       2.6        2.5        9.0       21.3       43.9       59.9       76.4      100.1      117.2      130.2
     138.0      143.6      142.0      134.2      118.4      101.2       84.4       67.4       53.4       41.8
      31.8       28.8       28.8       30.2       31.8       33.9       36.9       39.1       42.0       45.8
      49.2       52.5       55.4       57.6       59.2       59.2       58.5       61.3       60.9       59.3
      56.7       54.3       51.1       48.9       46.2       44.9       42.9       41.4       39.3       38.3
      37.6       36.3       36.7       39.7       47.2       54.6       64.4       75.9       88.0       99.0
     107.8      107.3      100.8       93.6       84.9       73.9       58.2       45.3       29.4       11.4
       3.5        0.9        0.1
       2.6        5.7       19.1       45.9       69.5       96.4      122.7      140.3      151.5      161.1
     155.8      138.3      118.6       99.7       82.5       66.8       54.6       44.5       44.2       48.6
      54.8       62.5       72.0       80.6       92.3      105.0      122.1      139.2      156.7      175.3
     192.6      210.3      221.9      229.2      229.4      225.4      215.6      227.8      225.1      218.6
     206.6      191.1      174.8      159.5      145.5      132.3      121.3      111.0      102.7       94.1
      86.2       77.2       69.2       60.5       53.7       48.0       48.2       55.2       62.4       73.0
      83.5       95.9      108.7      110.7      102.2       93.4       81.9       61.3       43.7       22.5
       5.8        0.2        0.1
       2.6        7.4       26.1       54.4       80.9      113.7      135.6      151.7      163.1      163.3
     147.1      126.9      106.8       87.1       71.4       58.0       49.2       49.4       55.5       64.6
      77.0       91.7      109.1      129.9      151.4      170.7      189.2      203.9      219.5      233.4
     248.3      267.7      284.2      296.1      297.8      293.8      290.6      286.4      282.0      266.5
     241.5      220.2      207.2      197.8      186.8      176.3      163.7      151.0      137.0      120.8
     106.7       92.6       81.4       70.3       60.2       52.8       48.8       53.0       63.8       74.2
      89.5      105.3      122.6      133.4      128.0      115.5       99.8       78.7       54.3       31.0
       7.3        1.0        0.1
       2.6        5.7       19.1       45.9       69.5       96.4      122.7      140.3      151.5      161.1
     155.8      138.3      118.6       99.7       82.5       66.8       54.6       44.5       44.2       48.6
      54.8       62.5       72.0       80.6       92.3      105.0      122.1      139.2      156.7      175.3
     192.6      210.3      221.9      229.2      229.4      225.4      215.6      227.8      225.1      218.6
     206.6      191.1      174.8      159.5      145.5      132.3      121.3      111.0      102.7       94.1
      86.2       77.2       69.2       60.5       53.7       48.0       48.2       55.2       62.4       73.0
      83.5       95.9      108.7      110.7      102.2       93.4       81.9       61.3       43.7       22.5
       5.8        0.2        0.1
       2.6        2.5        9.0       21.3       43.9       59.9       76.4      100.1      117.2      130.2
     138.0      143.6      142.0      134.2      118.4      101.2       84.4       67.4       53.4       41.8
      31.8       28.8       28.8       30.2       31.8       33.9       36.9       39.1       42.0       45.8
      49.2       52.5       55.4       57.6       59.2       59.2       58.5       61.3       60.9       59.3
      56.7       54.3       51.1       48.9       46.2       44.9       42.9       41.4       39.3       38.3
      37.6       36.3       36.7       39.7       47.2       54.6       64.4       75.9       88.0       99.0
     107.8      107.3      100.8       93.6       84.9       73.9       58.2       45.3       29.4       11.4
       3.5        0.9        0.1
       2.6        3.9        4.4        5.3        9.2       14.3       25.7       37.6       47.6       55.6
      62.3       71.8       83.9       96.8      105.9      110.8      112.7      110.1      105.1       98.2
      93.3       86.1       78.8       69.5       58.8       48.9       41.1       35.2       30.7       28.8
      27.5       28.0       28.3       30.0       30.7       32.5       33.4       49.8       47.5       46.1
      44.1       43.3       41.5       42.0       42.7       45.4       48.7       53.3       58.7       65.4
      71.8       79.1       86.3       93.6       98.2       99.7       98.6       95.5       90.8       82.7
      73.5       63.1       56.8       50.3       42.8       37.0       24.7       12.5        7.6        2.7
       1.2        0.0        0.1
       2.6        4.8        4.6        4.3        4.9        4.4        4.6        4.5        4.6        4.9
       4.8        4.5        4.8        4.6        4.5        4.7        4.6        4.5        4.5        4.4
       4.0        3.9        3.9        4.0        3.4        3.6        3.6        3.7        3.6        3.6
       3.6        3.4        3.5        3.0        3.0        3.2        3.2        0.8        0.8        0.6
       0.8        0.5        0.9        0.5        0.7        0.6        0.8        0.7        0.9        0.8
       0.7        0.8        0.7        0.7        0.3        0.1        0.3        0.3        0.1        0.3
       0.1        0.6        0.3        0.5        0.2        0.0        0.1        0.2        0.2        0.4
       0.2        0.2        0.1
       2.6        2.6        3.3        3.2        3.0        2.8        2.9        2.7        2.6        2.4
       2.4        1.5        1.9        1.9        1.9        1.3        1.5        1.5        1.3        0.8
       1.2        1.2        0.3        0.3        0.7        0.5        0.8        0.7        0.5        0.6
       0.5        0.3        0.2        0.4        0.3        0.0        0.0        0.0        0.0        0.0
       0.0        0.0        0.0        0.0        0.0        0.0        0.0        0.0        0.0        0.0
       0.0        0.0        0.0        0.0        0.0        0.0        0.0        0.0        0.0        0.0
       0.0        0.0        0.0        0.0        0.0        0.0        0.0        0.0        0.0        0.1
       0.1        0.0        0.1
       2.6        0.7        1.1        0.9        0.7        0.0        0.3        0.2        0.0        0.0
       0.0        0.0        0.0        0.0        0.0        0.0        0.0        0.0        0.0        0.0
       0.0        0.0        0.0        0.0        0.0        0.0        0.0        0.0        0.0        0.0
       0.0        0.0        0.0        0.0        0.0        0.0        0.0        0.0        0.0        0.0
       0.0        0.0        0.0        0.0        0.0        0.0        0.0        0.0        0.0        0.0
       0.0        0.0        0.0        0.0        0.0        0.0        0.0        0.0        0.0        0.0
       0.0        0.0        0.0        0.0        0.0        0.0        0.0        0.0        0.0        0.0
       0.0        0.1        0.1
       2.6        1.2        0.7        0.3        0.9        0.0        0.1        0.0        0.0        0.0
       0.0        0.0        0.0        0.0        0.0        0.0        0.0        0.0        0.0        0.0
       0.0        0.0        0.0        0.0        0.0        0.0        0.0        0.0        0.0        0.0
       0.0        0.0        0.0        0.0        0.0        0.0        0.0        0.0        0.0        0.0
       0.0        0.0        0.0        0.0        0.0        0.0        0.0        0.0        0.0        0.0
       0.0        0.0        0.0        0.0        0.0        0.0        0.0        0.0        0.0        0.0
       0.0        0.0        0.0        0.0        0.0        0.0        0.0        0.0        0.0        0.0
       0.0        0.0        0.1
       2.6        1.1        0.7        0.4        0.0        0.0        0.0        0.0        0.0        0.0
       0.0        0.0        0.0        0.0        0.0        0.0        0.0        0.0        0.0        0.0
       0.0        0.0        0.0        0.0        0.0        0.0        0.0        0.0        0.0        0.0
       0.0        0.0        0.0        0.0        0.0        0.0        0.0        0.0        0.0        0.0
       0.0        0.0        0.0        0.0        0.0        0.0        0.0        0.0        0.0        0.0
       0.0        0.0        0.0        0.0        0.0        0.0        0.0        0.0        0.0        0.0
       0.0        0.0        0.0        0.0        0.0        0.0        0.0        0.0        0.0        0.0
       0.0        0.0        0.1
