IESNA:LM-63-1995
[TEST]     19362
[MANUFAC]COOPER LIGHTING - SHAPER                         
[LUMCAT]633-WP-CF2/26                                                                   
[LUMINAIRE]EXTERIOR WALL MOUNT LUMINAIRE WITH WHITE INTERIOR AND WHITE PLASTIC LENS                                      
[LAMP]TWO SYLVANIA 26 WATT CPFL LAMPS                                                 
[LAMPCAT]CF26DD/E/841. LUMEN RATING = 3600 LMS.                                          
[OTHER]ONE UNIVERSAL C2642UNVSE BALLAST OPERATING AT 120 VAC AND 50 WATTS              
TILT=NONE
1
      3600
1
73
17
1
1
  0.23
  0.65
  0.73
1
1
   50.0000
0 2.5 5 7.5 10 12.5 15 17.5 20 22.5 25 27.5 30 32.5 35 37.5
40 42.5 45 47.5 50 52.5 55 57.5 60 62.5 65 67.5 70 72.5 75
77.5 80 82.5 85 87.5 90 92.5 95 97.5 100 102.5 105 107.5 110
112.5 115 117.5 120 122.5 125 127.5 130 132.5 135 137.5 140
142.5 145 147.5 150 152.5 155 157.5 160 162.5 165 167.5 170
172.5 175 177.5 180
0 22.5 45 67.5 90 112.5 135 157.5 180 202.5 225 247.5
270 292.5 315 337.5 360
      83.2       87.9      101.6      116.8      131.3      145.0      158.7      170.1      180.1      188.7
     194.0      199.1      202.5      205.3      208.3      211.6      215.9      219.1      219.3      217.6
     213.6      207.5      196.8      184.7      171.8      158.8      145.8      133.3      122.9      115.5
     111.1      107.8      104.7      102.8      100.4       99.5       99.0      101.9      101.7      101.1
     100.2       99.0       97.5       95.6       94.3       92.0       89.8       87.4       85.2       82.0
      79.4       75.8       72.8       69.3       66.1       62.0       58.7       54.7       50.8       46.4
      41.9       37.9       33.2       28.1       22.8       17.7       12.0        7.2        3.5        2.7
       2.3        2.1        0.5
      83.2       89.0      104.0      122.5      142.6      163.6      183.5      202.9      222.3      238.1
     250.4      257.9      263.0      267.2      268.3      267.9      266.1      261.9      257.7      253.4
     247.6      241.1      231.4      219.6      208.3      198.4      189.1      182.4      179.2      177.3
     176.6      176.1      175.9      175.9      175.5      175.0      174.5      182.4      181.7      180.3
     179.4      177.3      174.0      171.3      168.3      164.6      159.9      156.1      151.4      145.6
     140.1      133.8      127.8      120.6      113.9      107.0      100.1       92.2       84.6       76.5
      68.4       59.4       50.7       41.4       33.3       24.1       14.8        7.6        3.4        2.8
       2.8        2.6        0.5
      83.2       89.0      106.8      133.4      166.0      194.6      218.0      236.4      249.9      257.6
     261.9      264.2      263.7      260.8      257.7      253.8      249.9      247.6      244.8      242.0
     240.9      240.1      240.6      241.4      242.0      243.6      246.2      248.0      249.9      251.3
     255.0      257.6      259.4      260.3      261.0      261.2      260.8      265.4      264.2      262.9
     260.8      257.9      253.8      250.1      245.1      239.9      234.8      227.9      221.5      214.3
     206.2      198.4      189.6      180.6      171.0      161.1      149.8      139.4      127.8      117.4
     105.2       93.9       81.4       69.1       56.5       44.0       32.6       21.0       12.7        5.5
       2.6        2.1        0.5
      83.2       88.3      106.8      136.2      168.3      196.0      217.8      233.0      244.1      250.4
     253.1      252.9      252.9      251.5      249.9      249.4      248.8      248.8      249.9      251.8
     254.2      257.6      261.0      264.9      268.8      272.3      276.5      280.2      285.0      289.4
     293.5      297.0      299.6      301.0      302.2      303.1      303.3      301.7      301.2      299.3
     296.8      293.5      289.0      284.5      279.7      273.9      267.7      260.3      252.9      243.9
     235.8      225.8      216.6      206.6      196.0      184.9      172.2      160.2      147.7      135.0
     121.8      109.6       96.1       83.4       70.5       57.8       46.7       34.2       22.9       11.3
       3.2        1.4        0.5
      83.2       87.6      105.9      134.1      162.5      185.9      204.8      220.5      233.7      240.9
     243.9      247.3      248.0      248.5      248.3      247.1      247.1      247.1      247.8      250.1
     252.2      255.2      259.6      262.9      267.5      271.2      275.1      279.9      285.3      289.7
     294.0      296.8      299.3      301.7      302.6      303.1      303.8      300.3      298.9      297.2
     295.4      292.2      287.8      283.9      278.8      273.0      267.0      260.3      252.9      245.1
     236.7      227.0      218.5      208.0      198.1      188.0      176.6      165.5      153.0      141.7
     128.8      116.8      103.3       91.1       77.9       65.0       51.3       38.2       26.3       13.0
       0.5        0.5        0.5
      83.2       88.3      106.8      136.2      168.3      196.0      217.8      233.0      244.1      250.4
     253.1      252.9      252.9      251.5      249.9      249.4      248.8      248.8      249.9      251.8
     254.2      257.6      261.0      264.9      268.8      272.3      276.5      280.2      285.0      289.4
     293.5      297.0      299.6      301.0      302.2      303.1      303.3      301.7      301.2      299.3
     296.8      293.5      289.0      284.5      279.7      273.9      267.7      260.3      252.9      243.9
     235.8      225.8      216.6      206.6      196.0      184.9      172.2      160.2      147.7      135.0
     121.8      109.6       96.1       83.4       70.5       57.8       46.7       34.2       22.9       11.3
       3.2        1.4        0.5
      83.2       89.0      106.8      133.4      166.0      194.6      218.0      236.4      249.9      257.6
     261.9      264.2      263.7      260.8      257.7      253.8      249.9      247.6      244.8      242.0
     240.9      240.1      240.6      241.4      242.0      243.6      246.2      248.0      249.9      251.3
     255.0      257.6      259.4      260.3      261.0      261.2      260.8      265.4      264.2      262.9
     260.8      257.9      253.8      250.1      245.1      239.9      234.8      227.9      221.5      214.3
     206.2      198.4      189.6      180.6      171.0      161.1      149.8      139.4      127.8      117.4
     105.2       93.9       81.4       69.1       56.5       44.0       32.6       21.0       12.7        5.5
       2.6        2.1        0.5
      83.2       89.0      104.0      122.5      142.6      163.6      183.5      202.9      222.3      238.1
     250.4      257.9      263.0      267.2      268.3      267.9      266.1      261.9      257.7      253.4
     247.6      241.1      231.4      219.6      208.3      198.4      189.1      182.4      179.2      177.3
     176.6      176.1      175.9      175.9      175.5      175.0      174.5      182.4      181.7      180.3
     179.4      177.3      174.0      171.3      168.3      164.6      159.9      156.1      151.4      145.6
     140.1      133.8      127.8      120.6      113.9      107.0      100.1       92.2       84.6       76.5
      68.4       59.4       50.7       41.4       33.3       24.1       14.8        7.6        3.4        2.8
       2.8        2.6        0.5
      83.2       87.9      101.6      116.8      131.3      145.0      158.7      170.1      180.1      188.7
     194.0      199.1      202.5      205.3      208.3      211.6      215.9      219.1      219.3      217.6
     213.6      207.5      196.8      184.7      171.8      158.8      145.8      133.3      122.9      115.5
     111.1      107.8      104.7      102.8      100.4       99.5       99.0      101.9      101.7      101.1
     100.2       99.0       97.5       95.6       94.3       92.0       89.8       87.4       85.2       82.0
      79.4       75.8       72.8       69.3       66.1       62.0       58.7       54.7       50.8       46.4
      41.9       37.9       33.2       28.1       22.8       17.7       12.0        7.2        3.5        2.7
       2.3        2.1        0.5
      83.2       86.0       99.6      115.3      133.4      151.4      168.3      182.2      193.5      201.8
     206.2      209.0      209.9      209.2      207.8      206.2      204.5      203.2      201.1      197.6
     191.4      183.5      174.3      163.0      148.9      136.8      124.8      115.6      108.0      102.2
      98.5       95.0       92.4       90.2       88.1       87.4       86.9       93.4       92.7       92.2
      90.8       90.2       88.6       87.4       85.3       83.9       82.1       79.7       77.0       74.9
      71.7       69.1       65.6       63.1       59.4       56.0       52.3       49.3       45.1       41.4
      36.8       33.1       28.0       23.6       18.0       13.4        8.5        3.9        2.1        1.6
       1.8        1.8        0.5
      83.2       86.2       99.0      120.9      142.1      157.9      168.7      176.1      180.3      182.2
     182.9      182.2      181.7      179.8      176.6      171.5      163.0      152.4      142.9      133.4
     125.1      116.8      109.1      102.8       97.1       92.1       86.7       82.8       79.1       75.4
      72.8       70.1       68.4       66.6       65.2       64.7       64.0       68.0       67.2       67.1
      66.1       65.5       64.0       63.4       61.8       60.5       58.9       57.3       55.2       53.9
      51.1       49.7       47.4       44.8       42.5       39.8       37.0       34.2       31.2       28.0
      24.5       21.0       17.4       13.2        9.5        6.5        3.2        2.3        1.4        1.6
       1.2        1.6        0.5
      83.2       85.5       99.0      113.7      127.6      137.5      145.6      152.4      157.4      160.2
     160.4      159.9      156.5      146.8      136.6      125.8      114.9      103.3       94.0       86.0
      79.3       73.0       66.8       61.8       56.5       52.7       48.6       45.3       42.3       40.0
      37.4       35.8       33.7       32.9       32.9       32.4       31.9       31.6       31.5       30.8
      30.5       29.9       29.1       28.7       28.0       27.0       25.7       25.2       23.8       23.1
      22.0       21.0       19.6       19.0       16.9       15.5       14.8       12.7       11.8        9.7
       8.5        6.5        5.8        4.4        3.2        1.6        1.6        1.2        0.5        0.5
       0.7        0.5        0.5
      83.2       85.5       99.0      109.9      117.0      121.6      127.8      133.6      137.8      139.2
     140.5      137.8      130.6      121.6      111.5      100.6       90.4       79.6       70.9       62.4
      54.8       48.1       40.9       35.3       30.5       25.9       21.2       17.5       13.8       10.9
       8.4        5.5        3.1        2.8        2.6        1.8        1.2        1.2        0.7        1.2
       0.5        0.5        0.5        0.5        0.5        0.5        0.5        0.5        0.5        0.5
       0.5        0.5        0.5        0.5        0.5        0.5        0.5        0.5        0.5        0.5
       0.5        0.5        0.5        0.5        0.5        0.5        0.5        0.5        0.5        0.5
       0.5        0.5        0.5
      83.2       85.5       99.0      113.7      127.6      137.5      145.6      152.4      157.4      160.2
     160.4      159.9      156.5      146.8      136.6      125.8      114.9      103.3       94.0       86.0
      79.3       73.0       66.8       61.8       56.5       52.7       48.6       45.3       42.3       40.0
      37.4       35.8       33.7       32.9       32.9       32.4       31.9       31.6       31.5       30.8
      30.5       29.9       29.1       28.7       28.0       27.0       25.7       25.2       23.8       23.1
      22.0       21.0       19.6       19.0       16.9       15.5       14.8       12.7       11.8        9.7
       8.5        6.5        5.8        4.4        3.2        1.6        1.6        1.2        0.5        0.5
       0.7        0.5        0.5
      83.2       86.2       99.0      120.9      142.1      157.9      168.7      176.1      180.3      182.2
     182.9      182.2      181.7      179.8      176.6      171.5      163.0      152.4      142.9      133.4
     125.1      116.8      109.1      102.8       97.1       92.1       86.7       82.8       79.1       75.4
      72.8       70.1       68.4       66.6       65.2       64.7       64.0       68.0       67.2       67.1
      66.1       65.5       64.0       63.4       61.8       60.5       58.9       57.3       55.2       53.9
      51.1       49.7       47.4       44.8       42.5       39.8       37.0       34.2       31.2       28.0
      24.5       21.0       17.4       13.2        9.5        6.5        3.2        2.3        1.4        1.6
       1.2        1.6        0.5
      83.2       86.0       99.6      115.3      133.4      151.4      168.3      182.2      193.5      201.8
     206.2      209.0      209.9      209.2      207.8      206.2      204.5      203.2      201.1      197.6
     191.4      183.5      174.3      163.0      148.9      136.8      124.8      115.6      108.0      102.2
      98.5       95.0       92.4       90.2       88.1       87.4       86.9       93.4       92.7       92.2
      90.8       90.2       88.6       87.4       85.3       83.9       82.1       79.7       77.0       74.9
      71.7       69.1       65.6       63.1       59.4       56.0       52.3       49.3       45.1       41.4
      36.8       33.1       28.0       23.6       18.0       13.4        8.5        3.9        2.1        1.6
       1.8        1.8        0.5
      83.2       87.9      101.6      116.8      131.3      145.0      158.7      170.1      180.1      188.7
     194.0      199.1      202.5      205.3      208.3      211.6      215.9      219.1      219.3      217.6
     213.6      207.5      196.8      184.7      171.8      158.8      145.8      133.3      122.9      115.5
     111.1      107.8      104.7      102.8      100.4       99.5       99.0      101.9      101.7      101.1
     100.2       99.0       97.5       95.6       94.3       92.0       89.8       87.4       85.2       82.0
      79.4       75.8       72.8       69.3       66.1       62.0       58.7       54.7       50.8       46.4
      41.9       37.9       33.2       28.1       22.8       17.7       12.0        7.2        3.5        2.7
       2.3        2.1        0.5
