IESNA:LM-63-1995
[TEST]    19362A
[MANUFAC]COOPER LIGHTING - SHAPER                            
[LUMCAT]633-WP-CF2/13                                                                   
[LUMINAIRE]EXTERIOR WALL MOUNT LUMINAIRE WITH WHITE INTERIOR AND WHITE PLASTIC LENS                                      
[LAMP]TWO 13 WATT CPFL LAMPS. LUMEN RATING = 1800 LMS.                                
[OTHER]SIMULATED REPORT FROM TEST WITH 2 - 26 WATT LAMPS                               
TILT=NONE
1
      1800
1
73
17
1
1
  0.23
  0.65
  0.73
1
1
    0.0000
0 2.5 5 7.5 10 12.5 15 17.5 20 22.5 25 27.5 30 32.5 35 37.5
40 42.5 45 47.5 50 52.5 55 57.5 60 62.5 65 67.5 70 72.5 75
77.5 80 82.5 85 87.5 90 92.5 95 97.5 100 102.5 105 107.5 110
112.5 115 117.5 120 122.5 125 127.5 130 132.5 135 137.5 140
142.5 145 147.5 150 152.5 155 157.5 160 162.5 165 167.5 170
172.5 175 177.5 180
0 22.5 45 67.5 90 112.5 135 157.5 180 202.5 225 247.5
270 292.5 315 337.5 360
      41.3       43.6       52.7       66.8       81.0       92.7      102.2      110.0      116.6      120.2
     121.7      123.4      123.7      124.0      123.9      123.3      123.3      123.3      123.7      124.8
     125.8      127.3      129.6      131.2      133.5      135.3      137.3      139.7      142.4      144.6
     146.8      148.2      149.4      150.6      151.1      151.3      151.6      149.9      149.2      148.4
     147.5      145.9      143.6      141.7      139.1      136.2      133.3      129.9      126.2      122.3
     118.1      113.2      109.0      103.8       98.8       93.7       88.1       82.5       76.3       70.6
      64.1       58.1       51.4       45.3       38.7       32.2       25.4       18.8       12.9        6.2
       0.0        0.0        0.0
      41.3       43.9       53.2       67.8       83.9       97.8      108.6      116.3      121.8      124.9
     126.3      126.2      126.2      125.5      124.7      124.5      124.1      124.1      124.7      125.6
     126.9      128.5      130.2      132.2      134.2      135.9      138.0      139.8      142.3      144.4
     146.5      148.3      149.5      150.3      150.8      151.3      151.4      150.6      150.4      149.4
     148.2      146.5      144.2      142.0      139.6      136.7      133.6      129.9      126.2      121.7
     117.6      112.7      108.0      103.1       97.8       92.2       85.9       79.9       73.6       67.3
      60.6       54.5       47.8       41.5       35.0       28.6       23.1       16.9       11.2        5.4
       1.4        0.4        0.0
      41.3       44.3       53.2       66.5       82.8       97.0      108.7      118.0      124.7      128.5
     130.7      131.8      131.6      130.1      128.6      126.6      124.7      123.6      122.1      120.8
     120.2      119.8      120.1      120.4      120.8      121.6      122.8      123.7      124.7      125.4
     127.2      128.5      129.4      129.9      130.2      130.4      130.1      132.5      131.8      131.2
     130.1      128.7      126.6      124.8      122.3      119.7      117.2      113.7      110.5      106.9
     102.9       98.9       94.5       90.0       85.3       80.3       74.7       69.4       63.7       58.5
      52.4       46.7       40.4       34.3       28.0       21.7       16.0       10.3        6.1        2.5
       1.0        0.8        0.0
      41.3       44.3       51.7       61.0       71.1       81.6       91.5      101.2      110.9      118.8
     124.9      128.7      131.3      133.4      133.9      133.7      132.8      130.7      128.6      126.4
     123.6      120.3      115.5      109.5      103.9       98.9       94.3       90.9       89.3       88.4
      88.1       87.8       87.7       87.7       87.5       87.2       87.0       90.9       90.6       89.9
      89.4       88.4       86.8       85.4       83.9       82.0       79.7       77.8       75.5       72.6
      69.8       66.7       63.7       60.1       56.7       53.3       49.8       45.9       42.0       38.0
      33.9       29.4       25.1       20.5       16.4       11.8        7.1        3.6        1.5        1.1
       1.1        1.0        0.0
      41.3       43.7       50.6       58.1       65.4       72.2       79.1       84.8       89.8       94.1
      96.8       99.3      101.0      102.4      103.9      105.6      107.7      109.3      109.4      108.5
     106.5      103.5       98.2       92.1       85.6       79.2       72.6       66.4       61.2       57.5
      55.3       53.7       52.1       51.2       50.0       49.5       49.2       50.7       50.6       50.3
      49.9       49.2       48.5       47.6       46.9       45.8       44.6       43.4       42.3       40.7
      39.5       37.7       36.2       34.4       32.8       30.8       29.1       27.1       25.1       22.9
      20.7       18.7       16.4       13.8       11.1        8.6        5.8        3.3        1.5        1.1
       0.9        0.8        0.0
      41.3       42.7       49.6       57.4       66.5       75.5       83.9       90.8       96.5      100.6
     102.9      104.2      104.7      104.3      103.7      102.9      102.0      101.4      100.3       98.6
      95.4       91.5       86.9       81.2       74.2       68.2       62.2       57.6       53.7       50.8
      49.0       47.2       46.0       44.8       43.8       43.5       43.2       46.4       46.1       45.9
      45.2       44.8       44.0       43.5       42.4       41.7       40.8       39.6       38.3       37.2
      35.6       34.3       32.6       31.3       29.4       27.7       25.9       24.4       22.3       20.5
      18.1       16.3       13.7       11.6        8.8        6.4        4.0        1.7        0.8        0.6
       0.7        0.7        0.0
      41.3       42.8       49.2       60.2       70.8       78.7       84.1       87.8       89.9       90.8
      91.2       90.8       90.6       89.7       88.1       85.5       81.2       75.9       71.2       66.5
      62.3       58.1       54.3       51.2       48.3       45.8       43.1       41.1       39.3       37.4
      36.2       34.8       33.9       33.0       32.3       32.1       31.8       33.8       33.4       33.3
      32.8       32.5       31.8       31.4       30.6       30.0       29.2       28.4       27.4       26.7
      25.3       24.6       23.4       22.2       21.0       19.6       18.2       16.9       15.3       13.7
      12.0       10.3        8.4        6.3        4.5        3.0        1.4        0.9        0.4        0.6
       0.3        0.6        0.0
      41.3       42.5       49.2       56.6       63.5       68.5       72.6       75.9       78.4       79.9
      80.0       79.7       78.0       73.1       68.1       62.6       57.2       51.4       46.8       42.7
      39.4       36.3       33.1       30.6       28.0       26.1       24.0       22.4       20.9       19.7
      18.5       17.7       16.6       16.2       16.2       16.0       15.7       15.6       15.5       15.1
      15.0       14.7       14.3       14.1       13.7       13.3       12.6       12.4       11.6       11.3
      10.7       10.3        9.6        9.2        8.2        7.5        7.1        6.1        5.6        4.6
       4.0        3.0        2.7        1.9        1.4        0.6        0.6        0.3        0.0        0.0
       0.1        0.0        0.0
      41.3       42.5       49.2       54.7       58.2       60.5       63.7       66.6       68.6       69.4
      70.0       68.6       65.0       60.5       55.5       50.0       44.9       39.5       35.2       31.0
      27.1       23.8       20.2       17.4       15.0       12.7       10.4        8.5        6.7        5.2
       3.9        2.5        1.3        1.1        1.0        0.7        0.3        0.3        0.1        0.3
       0.0        0.0        0.0        0.0        0.0        0.0        0.0        0.0        0.0        0.0
       0.0        0.0        0.0        0.0        0.0        0.0        0.0        0.0        0.0        0.0
       0.0        0.0        0.0        0.0        0.0        0.0        0.0        0.0        0.0        0.0
       0.0        0.0        0.0
      41.3       42.5       49.2       56.6       63.5       68.5       72.6       75.9       78.4       79.9
      80.0       79.7       78.0       73.1       68.1       62.6       57.2       51.4       46.8       42.7
      39.4       36.3       33.1       30.6       28.0       26.1       24.0       22.4       20.9       19.7
      18.5       17.7       16.6       16.2       16.2       16.0       15.7       15.6       15.5       15.1
      15.0       14.7       14.3       14.1       13.7       13.3       12.6       12.4       11.6       11.3
      10.7       10.3        9.6        9.2        8.2        7.5        7.1        6.1        5.6        4.6
       4.0        3.0        2.7        1.9        1.4        0.6        0.6        0.3        0.0        0.0
       0.1        0.0        0.0
      41.3       42.8       49.2       60.2       70.8       78.7       84.1       87.8       89.9       90.8
      91.2       90.8       90.6       89.7       88.1       85.5       81.2       75.9       71.2       66.5
      62.3       58.1       54.3       51.2       48.3       45.8       43.1       41.1       39.3       37.4
      36.2       34.8       33.9       33.0       32.3       32.1       31.8       33.8       33.4       33.3
      32.8       32.5       31.8       31.4       30.6       30.0       29.2       28.4       27.4       26.7
      25.3       24.6       23.4       22.2       21.0       19.6       18.2       16.9       15.3       13.7
      12.0       10.3        8.4        6.3        4.5        3.0        1.4        0.9        0.4        0.6
       0.3        0.6        0.0
      41.3       42.7       49.6       57.4       66.5       75.5       83.9       90.8       96.5      100.6
     102.9      104.2      104.7      104.3      103.7      102.9      102.0      101.4      100.3       98.6
      95.4       91.5       86.9       81.2       74.2       68.2       62.2       57.6       53.7       50.8
      49.0       47.2       46.0       44.8       43.8       43.5       43.2       46.4       46.1       45.9
      45.2       44.8       44.0       43.5       42.4       41.7       40.8       39.6       38.3       37.2
      35.6       34.3       32.6       31.3       29.4       27.7       25.9       24.4       22.3       20.5
      18.1       16.3       13.7       11.6        8.8        6.4        4.0        1.7        0.8        0.6
       0.7        0.7        0.0
      41.3       43.7       50.6       58.1       65.4       72.2       79.1       84.8       89.8       94.1
      96.8       99.3      101.0      102.4      103.9      105.6      107.7      109.3      109.4      108.5
     106.5      103.5       98.2       92.1       85.6       79.2       72.6       66.4       61.2       57.5
      55.3       53.7       52.1       51.2       50.0       49.5       49.2       50.7       50.6       50.3
      49.9       49.2       48.5       47.6       46.9       45.8       44.6       43.4       42.3       40.7
      39.5       37.7       36.2       34.4       32.8       30.8       29.1       27.1       25.1       22.9
      20.7       18.7       16.4       13.8       11.1        8.6        5.8        3.3        1.5        1.1
       0.9        0.8        0.0
      41.3       44.3       51.7       61.0       71.1       81.6       91.5      101.2      110.9      118.8
     124.9      128.7      131.3      133.4      133.9      133.7      132.8      130.7      128.6      126.4
     123.6      120.3      115.5      109.5      103.9       98.9       94.3       90.9       89.3       88.4
      88.1       87.8       87.7       87.7       87.5       87.2       87.0       90.9       90.6       89.9
      89.4       88.4       86.8       85.4       83.9       82.0       79.7       77.8       75.5       72.6
      69.8       66.7       63.7       60.1       56.7       53.3       49.8       45.9       42.0       38.0
      33.9       29.4       25.1       20.5       16.4       11.8        7.1        3.6        1.5        1.1
       1.1        1.0        0.0
      41.3       44.3       53.2       66.5       82.8       97.0      108.7      118.0      124.7      128.5
     130.7      131.8      131.6      130.1      128.6      126.6      124.7      123.6      122.1      120.8
     120.2      119.8      120.1      120.4      120.8      121.6      122.8      123.7      124.7      125.4
     127.2      128.5      129.4      129.9      130.2      130.4      130.1      132.5      131.8      131.2
     130.1      128.7      126.6      124.8      122.3      119.7      117.2      113.7      110.5      106.9
     102.9       98.9       94.5       90.0       85.3       80.3       74.7       69.4       63.7       58.5
      52.4       46.7       40.4       34.3       28.0       21.7       16.0       10.3        6.1        2.5
       1.0        0.8        0.0
      41.3       43.9       53.2       67.8       83.9       97.8      108.6      116.3      121.8      124.9
     126.3      126.2      126.2      125.5      124.7      124.5      124.1      124.1      124.7      125.6
     126.9      128.5      130.2      132.2      134.2      135.9      138.0      139.8      142.3      144.4
     146.5      148.3      149.5      150.3      150.8      151.3      151.4      150.6      150.4      149.4
     148.2      146.5      144.2      142.0      139.6      136.7      133.6      129.9      126.2      121.7
     117.6      112.7      108.0      103.1       97.8       92.2       85.9       79.9       73.6       67.3
      60.6       54.5       47.8       41.5       35.0       28.6       23.1       16.9       11.2        5.4
       1.4        0.4        0.0
      41.3       43.6       52.7       66.8       81.0       92.7      102.2      110.0      116.6      120.2
     121.7      123.4      123.7      124.0      123.9      123.3      123.3      123.3      123.7      124.8
     125.8      127.3      129.6      131.2      133.5      135.3      137.3      139.7      142.4      144.6
     146.8      148.2      149.4      150.6      151.1      151.3      151.6      149.9      149.2      148.4
     147.5      145.9      143.6      141.7      139.1      136.2      133.3      129.9      126.2      122.3
     118.1      113.2      109.0      103.8       98.8       93.7       88.1       82.5       76.3       70.6
      64.1       58.1       51.4       45.3       38.7       32.2       25.4       18.8       12.9        6.2
       0.0        0.0        0.0
