IESNA:LM-63-1995
[TEST]     19862
[MANUFAC]COOPER LIGHTING - SHAPER                                 
[LUMCAT]660-WP-CF1/32                                                                   
[LUMINAIRE]INTERIOR WALL MOUNT LUMINAIRE WITH WHITE INTERIOR AND WHITE PLASTIC LENS WITH WHITE OUTER SHIELD                   
[LAMP]ONE SYLVANIA 26 WATT CPFL LAMP                                                  
[LAMPCAT]CF32DT/E/841. LUMEN RATING = 2400 LMS.                                          
[OTHER]ONE UNIVERSAL C2642UNVSE BALLAST OPERATING AT 120 VAC AND 30 WATTS              
TILT=NONE
1
      2400
1
73
17
1
1
  0.38
  0.33
  0.40
1
1
   30.0000
0 2.5 5 7.5 10 12.5 15 17.5 20 22.5 25 27.5 30 32.5 35 37.5
40 42.5 45 47.5 50 52.5 55 57.5 60 62.5 65 67.5 70 72.5 75
77.5 80 82.5 85 87.5 90 92.5 95 97.5 100 102.5 105 107.5 110
112.5 115 117.5 120 122.5 125 127.5 130 132.5 135 137.5 140
142.5 145 147.5 150 152.5 155 157.5 160 162.5 165 167.5 170
172.5 175 177.5 180
0 22.5 45 67.5 90 112.5 135 157.5 180 202.5 225 247.5
270 292.5 315 337.5 360
      80.7       78.1       78.4       78.5       76.6       73.5       68.4       63.8       59.6       55.0
      50.3       45.4       40.7       35.1       30.6       26.2       21.8       16.7       13.0        9.9
       6.5        3.8        2.8        1.5        0.0        0.0        0.0        0.0        0.0        0.0
       0.0        0.0        0.0        0.0        0.0        0.0        0.0        0.0        0.0        0.0
       0.0        0.0        0.0        0.0        0.0        0.0        0.0        0.0        0.2        0.3
       1.4        3.0        4.6        6.1        7.9       10.1       12.8       15.0       17.8       20.0
      22.7       25.0       27.5       29.9       31.6       34.5       36.5       38.9       41.5       43.1
      43.0       42.4       45.1
      80.7       79.0       78.0       77.9       77.1       73.9       68.6       64.0       59.7       55.0
      50.2       45.2       40.4       35.1       30.6       25.4       21.2       17.4       13.7       10.4
       7.1        4.8        2.9        1.1        0.8        0.1        0.3        0.2        0.2        0.0
       0.1        0.0        0.0        0.2        0.2        0.0        0.0        0.0        0.0        0.0
       0.0        0.0        0.0        0.0        0.0        0.0        0.0        0.0        0.3        0.7
       2.1        3.0        5.1        6.4        8.5       10.7       12.9       15.0       17.5       20.5
      23.0       25.0       27.6       30.0       33.1       35.6       38.7       41.5       43.3       43.6
      43.4       43.4       45.1
      80.7       79.4       79.7       78.9       77.3       74.8       72.7       68.6       63.7       58.3
      53.3       47.0       42.1       37.2       32.3       26.7       22.5       18.3       13.4       10.0
       7.4        4.9        2.6        1.4        1.6        1.2        1.1        0.9        0.8        0.0
       0.0        0.4        0.3        0.2        0.2        0.0        0.0        0.0        0.0        0.0
       0.0        0.0        0.0        0.0        0.3        0.4        0.4        0.8        1.1        1.5
       2.8        3.7        5.6        7.6        9.8       11.8       14.6       16.9       19.9       22.0
      24.7       27.9       30.8       33.3       36.0       39.1       42.8       45.3       46.8       46.1
      45.8       44.6       45.1
      80.7       80.4       81.6       82.0       81.3       80.4       76.2       71.8       66.8       61.4
      56.0       50.9       45.8       40.7       36.0       31.2       26.2       22.2       18.3       14.8
      10.8        8.3        6.8        5.5        3.7        3.2        3.5        3.0        2.5        2.4
       2.1        1.0        0.8        1.1        0.9        0.9        0.4        3.1        2.6        2.8
       3.1        3.4        3.7        4.0        3.7        4.2        4.9        5.1        5.8        6.3
       8.1        9.4       11.3       13.0       14.9       17.0       19.6       21.6       24.1       26.6
      28.9       31.6       34.1       36.1       38.9       41.7       44.2       47.3       49.4       49.9
      48.5       47.0       45.1
      80.7       81.3       83.9       86.5       87.3       87.0       84.4       80.7       75.9       71.9
      68.0       64.4       60.5       56.3       52.5       48.8       45.2       41.1       37.9       34.8
      31.2       28.6       26.2       24.3       22.6       21.5       20.1       19.4       19.0       18.0
      17.2       17.2       16.3       15.8       15.3       15.2       15.5       15.4       15.3       15.6
      15.9       15.9       16.7       16.9       17.5       18.2       18.7       19.6       20.2       21.5
      22.7       23.7       25.6       26.7       28.2       29.9       31.6       32.9       34.8       36.4
      38.2       39.7       41.4       43.5       45.4       47.4       49.7       51.6       52.3       51.7
      50.2       47.4       45.1
      80.7       83.1       88.2       92.1       94.6       95.5       95.4       93.4       91.2       88.5
      85.8       83.4       80.5       77.6       74.8       71.8       69.2       65.8       63.5       61.1
      58.3       56.0       52.9       51.3       49.2       47.6       45.4       43.8       42.1       40.5
      39.0       37.7       36.3       35.2       34.1       33.6       33.1       29.6       29.9       29.6
      30.2       30.4       30.9       31.3       31.7       32.7       33.5       34.2       35.1       36.2
      36.8       38.1       38.6       40.1       41.0       41.9       43.0       43.6       45.1       45.7
      47.0       48.2       49.3       50.9       52.6       54.2       55.1       55.3       54.3       52.9
      50.2       46.8       45.1
      80.7       85.0       90.4       96.0      100.3      102.8      104.2      104.5      104.2      103.2
     101.3      100.3       98.5       96.5       93.9       92.2       89.8       87.8       85.5       83.0
      80.3       77.8       75.0       72.6       69.8       67.4       64.5       62.3       59.7       57.4
      54.8       52.9       50.6       49.3       47.3       46.7       45.2       42.6       42.8       42.1
      42.5       42.7       43.3       44.0       44.2       45.3       46.0       46.8       47.5       48.6
      49.3       50.3       51.0       51.7       52.7       53.5       54.0       55.0       55.8       56.3
      57.4       57.7       59.1       59.4       60.5       60.6       60.6       60.3       58.7       55.7
      52.0       47.6       45.1
      80.7       86.1       92.7       98.8      104.4      108.4      111.7      113.4      113.8      113.4
     112.2      110.8      109.2      107.5      105.5      103.0      101.0       98.5       96.0       93.6
      91.6       89.0       86.6       84.0       81.1       78.3       75.5       72.8       69.9       67.2
      64.6       62.1       59.8       57.4       55.7       53.7       52.7       50.2       50.4       50.6
      50.5       51.0       51.7       52.6       53.4       54.3       54.8       56.2       57.1       58.5
      59.4       60.1       61.0       61.4       62.3       62.7       63.3       64.6       65.4       65.9
      66.1       67.3       67.6       68.8       69.2       69.4       68.5       66.8       63.9       59.3
      54.0       48.4       45.1
      80.7       87.1       94.6      101.7      106.8      111.4      113.5      115.4      115.7      115.0
     113.2      112.4      110.5      107.9      105.9      104.4      102.3       99.7       97.2       95.0
      93.1       90.8       88.1       85.8       82.7       80.3       77.3       74.7       72.4       69.4
      67.1       64.7       62.4       60.9       58.9       57.6       56.0       52.1       52.5       52.5
      53.0       52.8       53.9       54.3       55.6       56.0       56.9       58.0       59.3       60.0
      61.0       61.8       62.7       63.1       63.8       64.4       65.1       65.7       66.1       66.8
      67.2       68.2       68.8       69.8       70.7       71.2       71.0       69.3       66.6       61.7
      54.6       48.9       45.1
      80.7       86.1       92.7       98.8      104.4      108.4      111.7      113.4      113.8      113.4
     112.2      110.8      109.2      107.5      105.5      103.0      101.0       98.5       96.0       93.6
      91.6       89.0       86.6       84.0       81.1       78.3       75.5       72.8       69.9       67.2
      64.6       62.1       59.8       57.4       55.7       53.7       52.7       50.2       50.4       50.6
      50.5       51.0       51.7       52.6       53.4       54.3       54.8       56.2       57.1       58.5
      59.4       60.1       61.0       61.4       62.3       62.7       63.3       64.6       65.4       65.9
      66.1       67.3       67.6       68.8       69.2       69.4       68.5       66.8       63.9       59.3
      54.0       48.4       45.1
      80.7       85.0       90.4       96.0      100.3      102.8      104.2      104.5      104.2      103.2
     101.3      100.3       98.5       96.5       93.9       92.2       89.8       87.8       85.5       83.0
      80.3       77.8       75.0       72.6       69.8       67.4       64.5       62.3       59.7       57.4
      54.8       52.9       50.6       49.3       47.3       46.7       45.2       42.6       42.8       42.1
      42.5       42.7       43.3       44.0       44.2       45.3       46.0       46.8       47.5       48.6
      49.3       50.3       51.0       51.7       52.7       53.5       54.0       55.0       55.8       56.3
      57.4       57.7       59.1       59.4       60.5       60.6       60.6       60.3       58.7       55.7
      52.0       47.6       45.1
      80.7       83.1       88.2       92.1       94.6       95.5       95.4       93.4       91.2       88.5
      85.8       83.4       80.5       77.6       74.8       71.8       69.2       65.8       63.5       61.1
      58.3       56.0       52.9       51.3       49.2       47.6       45.4       43.8       42.1       40.5
      39.0       37.7       36.3       35.2       34.1       33.6       33.1       29.6       29.9       29.6
      30.2       30.4       30.9       31.3       31.7       32.7       33.5       34.2       35.1       36.2
      36.8       38.1       38.6       40.1       41.0       41.9       43.0       43.6       45.1       45.7
      47.0       48.2       49.3       50.9       52.6       54.2       55.1       55.3       54.3       52.9
      50.2       46.8       45.1
      80.7       81.3       83.9       86.5       87.3       87.0       84.4       80.7       75.9       71.9
      68.0       64.4       60.5       56.3       52.5       48.8       45.2       41.1       37.9       34.8
      31.2       28.6       26.2       24.3       22.6       21.5       20.1       19.4       19.0       18.0
      17.2       17.2       16.3       15.8       15.3       15.2       15.5       15.4       15.3       15.6
      15.9       15.9       16.7       16.9       17.5       18.2       18.7       19.6       20.2       21.5
      22.7       23.7       25.6       26.7       28.2       29.9       31.6       32.9       34.8       36.4
      38.2       39.7       41.4       43.5       45.4       47.4       49.7       51.6       52.3       51.7
      50.2       47.4       45.1
      80.7       80.4       81.6       82.0       81.3       80.4       76.2       71.8       66.8       61.4
      56.0       50.9       45.8       40.7       36.0       31.2       26.2       22.2       18.3       14.8
      10.8        8.3        6.8        5.5        3.7        3.2        3.5        3.0        2.5        2.4
       2.1        1.0        0.8        1.1        0.9        0.9        0.4        3.1        2.6        2.8
       3.1        3.4        3.7        4.0        3.7        4.2        4.9        5.1        5.8        6.3
       8.1        9.4       11.3       13.0       14.9       17.0       19.6       21.6       24.1       26.6
      28.9       31.6       34.1       36.1       38.9       41.7       44.2       47.3       49.4       49.9
      48.5       47.0       45.1
      80.7       79.4       79.7       78.9       77.3       74.8       72.7       68.6       63.7       58.3
      53.3       47.0       42.1       37.2       32.3       26.7       22.5       18.3       13.4       10.0
       7.4        4.9        2.6        1.4        1.6        1.2        1.1        0.9        0.8        0.0
       0.0        0.4        0.3        0.2        0.2        0.0        0.0        0.0        0.0        0.0
       0.0        0.0        0.0        0.0        0.3        0.4        0.4        0.8        1.1        1.5
       2.8        3.7        5.6        7.6        9.8       11.8       14.6       16.9       19.9       22.0
      24.7       27.9       30.8       33.3       36.0       39.1       42.8       45.3       46.8       46.1
      45.8       44.6       45.1
      80.7       79.0       78.0       77.9       77.1       73.9       68.6       64.0       59.7       55.0
      50.2       45.2       40.4       35.1       30.6       25.4       21.2       17.4       13.7       10.4
       7.1        4.8        2.9        1.1        0.8        0.1        0.3        0.2        0.2        0.0
       0.1        0.0        0.0        0.2        0.2        0.0        0.0        0.0        0.0        0.0
       0.0        0.0        0.0        0.0        0.0        0.0        0.0        0.0        0.3        0.7
       2.1        3.0        5.1        6.4        8.5       10.7       12.9       15.0       17.5       20.5
      23.0       25.0       27.6       30.0       33.1       35.6       38.7       41.5       43.3       43.6
      43.4       43.4       45.1
      80.7       78.1       78.4       78.5       76.6       73.5       68.4       63.8       59.6       55.0
      50.3       45.4       40.7       35.1       30.6       26.2       21.8       16.7       13.0        9.9
       6.5        3.8        2.8        1.5        0.0        0.0        0.0        0.0        0.0        0.0
       0.0        0.0        0.0        0.0        0.0        0.0        0.0        0.0        0.0        0.0
       0.0        0.0        0.0        0.0        0.0        0.0        0.0        0.0        0.2        0.3
       1.4        3.0        4.6        6.1        7.9       10.1       12.8       15.0       17.8       20.0
      22.7       25.0       27.5       29.9       31.6       34.5       36.5       38.9       41.5       43.1
      43.0       42.4       45.1
