IESNA:LM-63-1995
[TEST]    20431A
[MANUFAC]COOPER LIGHTING - SHAPER                                 
[LUMCAT]673-36-T5/1/21                                                                  
[LUMINAIRE]INTERIOR WALL MOUNT LUMINAIRE WITH WHITE INTERIOR AND WHITE PLASTIC LENS                                      
[LAMP]ONE 21 WATT T5 LAMP. LUMEN RATING = 1890 LMS.                                   
[OTHER]SIMULATED REPORT FROM TEST WITH 2 - 21 WATT LAMPS                               
TILT=NONE
1
      1890
1
73
17
1
1
  0.00
  0.00
  0.00
1
1
    0.0000
0 2.5 5 7.5 10 12.5 15 17.5 20 22.5 25 27.5 30 32.5 35 37.5
40 42.5 45 47.5 50 52.5 55 57.5 60 62.5 65 67.5 70 72.5 75
77.5 80 82.5 85 87.5 90 92.5 95 97.5 100 102.5 105 107.5 110
112.5 115 117.5 120 122.5 125 127.5 130 132.5 135 137.5 140
142.5 145 147.5 150 152.5 155 157.5 160 162.5 165 167.5 170
172.5 175 177.5 180
0 22.5 45 67.5 90 112.5 135 157.5 180 202.5 225 247.5
270 292.5 315 337.5 360
       0.0        7.0       16.4       26.0       35.5       45.4       55.4       66.0       76.4       87.3
      98.1      108.9      119.6      130.3      140.7      151.0      161.1      171.1      180.8      190.0
     198.8      207.5      215.7      223.8      231.3      238.1      244.3      250.0      255.0      259.6
     263.4      266.5      269.1      270.9      272.1      272.7      272.4      271.7      270.2      268.0
     265.2      261.9      257.9      253.3      248.4      242.7      236.5      229.7      222.4      214.6
     206.5      197.9      188.9      179.5      169.7      159.9      149.5      139.3      128.6      117.6
     106.6       95.6       84.4       73.1       61.9       50.7       39.7       29.1       19.3        9.7
       1.8        0.0        0.0
       0.0        6.4       15.0       23.9       32.6       41.9       51.2       60.7       70.7       80.6
      90.5      100.6      110.5      120.3      130.0      139.6      149.0      158.1      167.2      175.7
     184.1      192.2      199.7      207.0      214.0      220.5      226.4      231.8      236.5      240.8
     244.5      247.5      249.9      251.7      252.9      253.4      253.3      252.5      251.1      249.0
     246.5      243.4      239.6      235.4      230.6      225.3      219.5      213.1      206.2      199.0
     191.5      183.4      175.0      166.2      157.1      148.1      138.5      128.6      118.8      108.4
      98.1       87.9       77.4       66.9       56.5       46.1       36.1       26.4       17.1        8.2
       1.5        0.0        0.0
       0.0        5.0       12.1       19.1       26.4       33.8       41.5       49.4       57.5       65.7
      74.0       82.3       90.5       98.6      106.6      114.3      122.3      129.9      137.4      144.7
     151.7      158.5      164.9      171.3      177.3      182.8      187.8      192.4      196.5      200.2
     203.3      205.9      207.9      209.5      210.5      211.0      210.8      210.2      208.9      207.3
     205.0      202.3      199.1      195.4      191.4      186.9      181.9      176.5      170.7      164.6
     158.1      151.4      144.3      136.8      129.2      121.4      113.3      105.0       96.5       87.9
      79.2       70.5       61.7       53.0       44.3       35.8       27.6       19.6       12.1        5.2
       0.7        0.0        0.0
       0.0        3.4        8.8       14.2       19.6       25.3       31.1       37.0       43.1       49.4
      55.6       61.8       68.0       74.1       80.2       86.3       92.3       98.2      104.1      109.4
     114.8      120.0      125.0      129.8      134.4      138.6      142.4      145.8      149.1      151.8
     154.2      156.2      157.7      159.0      159.7      160.0      159.9      159.5      158.5      157.1
     155.4      153.2      150.8      148.0      144.8      141.4      137.5      133.3      128.7      123.9
     118.8      113.6      108.0      102.3       96.4       90.2       84.0       77.6       71.1       64.4
      58.0       51.5       44.8       38.1       31.5       25.0       18.8       13.0        7.5        2.7
       0.0        0.0        0.0
       0.0        0.7        3.4        7.0       10.5       14.0       17.7       21.4       25.2       29.1
      33.0       36.9       41.0       44.9       48.7       52.5       56.3       60.0       63.7       67.2
      70.6       73.8       76.9       79.9       82.8       85.4       87.9       90.2       92.2       94.0
      95.5       96.8       97.9       98.8       99.4       99.8       99.9       99.8       99.4       98.7
      97.7       96.6       95.3       93.6       91.8       89.8       87.5       85.1       82.4       79.5
      76.5       73.2       69.9       66.3       62.7       59.0       55.0       51.1       47.0       42.9
      38.8       34.6       30.4       26.2       22.0       18.0       14.1       10.3        6.6        3.2
       0.7        0.0        0.0
       0.0        0.0        0.0        1.2        2.7        4.3        5.9        7.6        9.2       10.9
      12.6       14.2       15.9       17.6       19.2       20.9       22.5       24.0       25.6       27.1
      28.5       29.9       31.3       32.6       33.7       34.8       36.0       36.8       37.7       38.5
      39.3       39.9       40.3       40.8       41.1       41.4       41.5       41.5       41.4       41.2
      40.9       40.5       40.1       39.3       38.6       37.9       37.0       36.0       34.8       33.7
      32.4       31.1       29.7       28.3       26.7       25.3       23.5       21.8       20.0       18.4
      16.6       14.8       13.0       11.2        9.4        7.6        5.8        4.1        2.6        1.2
       0.0        0.0        0.0
       0.0        0.0        0.0        0.0        0.0        0.0        0.0        0.0        0.2        0.3
       0.6        0.7        1.0        1.2        1.4        1.6        1.8        2.1        2.3        2.4
       2.7        2.8        2.9        3.2        3.3        3.4        3.5        3.7        3.8        3.9
       4.1        4.1        4.2        4.2        4.4        4.4        4.4        4.4        4.4        4.3
       4.2        4.2        4.1        4.1        4.0        3.8        3.7        3.6        3.5        3.3
       3.2        2.9        2.8        2.7        2.4        2.2        2.0        1.7        1.5        1.3
       1.0        0.8        0.5        0.3        0.0        0.0        0.0        0.0        0.0        0.0
       0.0        0.0        0.0
       0.0        0.0        0.0        0.0        0.0        0.0        0.0        0.0        0.0        0.0
       0.0        0.0        0.0        0.0        0.0        0.0        0.0        0.0        0.0        0.0
       0.0        0.0        0.0        0.0        0.0        0.0        0.0        0.0        0.0        0.0
       0.0        0.0        0.0        0.0        0.0        0.0        0.0        0.0        0.0        0.0
       0.0        0.0        0.0        0.0        0.0        0.0        0.0        0.0        0.0        0.0
       0.0        0.0        0.0        0.0        0.0        0.0        0.0        0.0        0.0        0.0
       0.0        0.0        0.0        0.0        0.0        0.0        0.0        0.0        0.0        0.0
       0.0        0.0        0.0
       0.0        0.0        0.0        0.0        0.0        0.0        0.0        0.0        0.0        0.0
       0.0        0.0        0.0        0.0        0.0        0.0        0.0        0.0        0.0        0.0
       0.0        0.0        0.0        0.0        0.0        0.0        0.0        0.0        0.0        0.0
       0.0        0.0        0.0        0.0        0.0        0.0        0.0        0.0        0.0        0.0
       0.0        0.0        0.0        0.0        0.0        0.0        0.0        0.0        0.0        0.0
       0.0        0.0        0.0        0.0        0.0        0.0        0.0        0.0        0.0        0.0
       0.0        0.0        0.0        0.0        0.0        0.0        0.0        0.0        0.0        0.0
       0.0        0.0        0.0
       0.0        0.0        0.0        0.0        0.0        0.0        0.0        0.0        0.0        0.0
       0.0        0.0        0.0        0.0        0.0        0.0        0.0        0.0        0.0        0.0
       0.0        0.0        0.0        0.0        0.0        0.0        0.0        0.0        0.0        0.0
       0.0        0.0        0.0        0.0        0.0        0.0        0.0        0.0        0.0        0.0
       0.0        0.0        0.0        0.0        0.0        0.0        0.0        0.0        0.0        0.0
       0.0        0.0        0.0        0.0        0.0        0.0        0.0        0.0        0.0        0.0
       0.0        0.0        0.0        0.0        0.0        0.0        0.0        0.0        0.0        0.0
       0.0        0.0        0.0
       0.0        0.0        0.0        0.0        0.0        0.0        0.0        0.0        0.2        0.3
       0.6        0.7        1.0        1.2        1.4        1.6        1.8        2.1        2.3        2.4
       2.7        2.8        2.9        3.2        3.3        3.4        3.5        3.7        3.8        3.9
       4.1        4.1        4.2        4.2        4.4        4.4        4.4        4.4        4.4        4.3
       4.2        4.2        4.1        4.1        4.0        3.8        3.7        3.6        3.5        3.3
       3.2        2.9        2.8        2.7        2.4        2.2        2.0        1.7        1.5        1.3
       1.0        0.8        0.5        0.3        0.0        0.0        0.0        0.0        0.0        0.0
       0.0        0.0        0.0
       0.0        0.0        0.0        1.2        2.7        4.3        5.9        7.6        9.2       10.9
      12.6       14.2       15.9       17.6       19.2       20.9       22.5       24.0       25.6       27.1
      28.5       29.9       31.3       32.6       33.7       34.8       36.0       36.8       37.7       38.5
      39.3       39.9       40.3       40.8       41.1       41.4       41.5       41.5       41.4       41.2
      40.9       40.5       40.1       39.3       38.6       37.9       37.0       36.0       34.8       33.7
      32.4       31.1       29.7       28.3       26.7       25.3       23.5       21.8       20.0       18.4
      16.6       14.8       13.0       11.2        9.4        7.6        5.8        4.1        2.6        1.2
       0.0        0.0        0.0
       0.0        0.7        3.4        7.0       10.5       14.0       17.7       21.4       25.2       29.1
      33.0       36.9       41.0       44.9       48.7       52.5       56.3       60.0       63.7       67.2
      70.6       73.8       76.9       79.9       82.8       85.4       87.9       90.2       92.2       94.0
      95.5       96.8       97.9       98.8       99.4       99.8       99.9       99.8       99.4       98.7
      97.7       96.6       95.3       93.6       91.8       89.8       87.5       85.1       82.4       79.5
      76.5       73.2       69.9       66.3       62.7       59.0       55.0       51.1       47.0       42.9
      38.8       34.6       30.4       26.2       22.0       18.0       14.1       10.3        6.6        3.2
       0.7        0.0        0.0
       0.0        3.4        8.8       14.2       19.6       25.3       31.1       37.0       43.1       49.4
      55.6       61.8       68.0       74.1       80.2       86.3       92.3       98.2      104.1      109.4
     114.8      120.0      125.0      129.8      134.4      138.6      142.4      145.8      149.1      151.8
     154.2      156.2      157.7      159.0      159.7      160.0      159.9      159.5      158.5      157.1
     155.4      153.2      150.8      148.0      144.8      141.4      137.5      133.3      128.7      123.9
     118.8      113.6      108.0      102.3       96.4       90.2       84.0       77.6       71.1       64.4
      58.0       51.5       44.8       38.1       31.5       25.0       18.8       13.0        7.5        2.7
       0.0        0.0        0.0
       0.0        5.0       12.1       19.1       26.4       33.8       41.5       49.4       57.5       65.7
      74.0       82.3       90.5       98.6      106.6      114.3      122.3      129.9      137.4      144.7
     151.7      158.5      164.9      171.3      177.3      182.8      187.8      192.4      196.5      200.2
     203.3      205.9      207.9      209.5      210.5      211.0      210.8      210.2      208.9      207.3
     205.0      202.3      199.1      195.4      191.4      186.9      181.9      176.5      170.7      164.6
     158.1      151.4      144.3      136.8      129.2      121.4      113.3      105.0       96.5       87.9
      79.2       70.5       61.7       53.0       44.3       35.8       27.6       19.6       12.1        5.2
       0.7        0.0        0.0
       0.0        6.4       15.0       23.9       32.6       41.9       51.2       60.7       70.7       80.6
      90.5      100.6      110.5      120.3      130.0      139.6      149.0      158.1      167.2      175.7
     184.1      192.2      199.7      207.0      214.0      220.5      226.4      231.8      236.5      240.8
     244.5      247.5      249.9      251.7      252.9      253.4      253.3      252.5      251.1      249.0
     246.5      243.4      239.6      235.4      230.6      225.3      219.5      213.1      206.2      199.0
     191.5      183.4      175.0      166.2      157.1      148.1      138.5      128.6      118.8      108.4
      98.1       87.9       77.4       66.9       56.5       46.1       36.1       26.4       17.1        8.2
       1.5        0.0        0.0
       0.0        7.0       16.4       26.0       35.5       45.4       55.4       66.0       76.4       87.3
      98.1      108.9      119.6      130.3      140.7      151.0      161.1      171.1      180.8      190.0
     198.8      207.5      215.7      223.8      231.3      238.1      244.3      250.0      255.0      259.6
     263.4      266.5      269.1      270.9      272.1      272.7      272.4      271.7      270.2      268.0
     265.2      261.9      257.9      253.3      248.4      242.7      236.5      229.7      222.4      214.6
     206.5      197.9      188.9      179.5      169.7      159.9      149.5      139.3      128.6      117.6
     106.6       95.6       84.4       73.1       61.9       50.7       39.7       29.1       19.3        9.7
       1.8        0.0        0.0
