IESNA:LM-63-1995
[TEST]     20431
[MANUFAC]COOPER LIGHTING - SHAPER                                 
[LUMCAT]673-36-T5/2/21                                                                  
[LUMINAIRE]INTERIOR WALL MOUNT LUMINAIRE WITH WHITE INTERIOR AND WHITE PLASTIC LENS                                      
[LAMP]TWO SYLVANIA 21 WATT T5 LAMPS                                                   
[LAMPCAT]FP21/830. LUMEN RATING = 1890 LMS.                                              
[OTHER]ONE UNIVERSAL B228PUNV-C BALLAST OPERATING AT 120 VAC AND 49 WATTS              
TILT=NONE
2
      1890
1
73
17
1
1
  0.00
  0.00
  0.00
1
1
   49.0000
0 2.5 5 7.5 10 12.5 15 17.5 20 22.5 25 27.5 30 32.5 35 37.5
40 42.5 45 47.5 50 52.5 55 57.5 60 62.5 65 67.5 70 72.5 75
77.5 80 82.5 85 87.5 90 92.5 95 97.5 100 102.5 105 107.5 110
112.5 115 117.5 120 122.5 125 127.5 130 132.5 135 137.5 140
142.5 145 147.5 150 152.5 155 157.5 160 162.5 165 167.5 170
172.5 175 177.5 180
0 22.5 45 67.5 90 112.5 135 157.5 180 202.5 225 247.5
270 292.5 315 337.5 360
       0.0       13.9       32.8       52.0       71.1       90.8      110.9      131.9      152.9      174.5
     196.2      217.8      239.2      260.6      281.5      302.0      322.2      342.3      361.7      380.0
     397.7      414.9      431.3      447.6      462.6      476.2      488.5      499.9      510.0      519.2
     526.9      533.1      538.1      541.9      544.2      545.4      544.9      543.4      540.4      536.0
     530.4      523.8      515.8      506.7      496.8      485.4      473.1      459.5      444.8      429.2
     413.0      395.8      377.7      358.9      339.4      319.8      299.0      278.6      257.2      235.1
     213.2      191.2      168.8      146.2      123.9      101.5       79.4       58.1       38.6       19.5
       3.6        0.0        0.0
       0.0       12.7       30.1       47.7       65.2       83.7      102.4      121.5      141.4      161.2
     180.9      201.2      220.9      240.6      259.9      279.2      298.0      316.3      334.3      351.4
     368.2      384.3      399.5      414.0      428.0      441.0      452.8      463.7      473.1      481.6
     489.0      495.0      499.8      503.3      505.7      506.8      506.6      505.0      502.2      498.0
     492.9      486.8      479.2      470.8      461.3      450.7      439.0      426.1      412.5      398.1
     383.0      366.9      350.0      332.4      314.3      296.2      276.9      257.3      237.5      216.8
     196.1      175.8      154.8      133.8      112.9       92.2       72.2       52.8       34.1       16.3
       2.9        0.0        0.0
       0.0       10.1       24.1       38.1       52.8       67.6       83.0       98.8      115.0      131.5
     148.1      164.6      180.9      197.2      213.2      228.6      244.5      259.7      274.9      289.4
     303.4      316.9      329.9      342.6      354.7      365.5      375.6      384.8      393.0      400.3
     406.6      411.8      415.9      419.0      420.9      421.9      421.7      420.4      417.8      414.5
     410.1      404.6      398.2      390.8      382.8      373.8      363.8      353.0      341.3      329.2
     316.3      302.8      288.6      273.6      258.5      242.7      226.6      209.9      193.1      175.7
     158.4      141.1      123.4      105.9       88.6       71.6       55.1       39.2       24.2       10.4
       1.4        0.0        0.0
       0.0        6.8       17.5       28.4       39.2       50.6       62.2       74.0       86.3       98.8
     111.1      123.5      135.9      148.2      160.4      172.6      184.6      196.5      208.1      218.9
     229.7      240.1      250.0      259.6      268.7      277.1      284.8      291.6      298.1      303.5
     308.5      312.3      315.5      318.0      319.4      320.0      319.8      318.9      317.0      314.2
     310.8      306.4      301.6      295.9      289.6      282.7      275.0      266.5      257.4      247.9
     237.7      227.3      216.1      204.5      192.7      180.5      168.1      155.3      142.2      128.8
     115.9      103.0       89.5       76.2       62.9       50.0       37.6       26.0       15.0        5.3
       0.0        0.0        0.0
       0.0        1.3        6.9       14.0       21.0       28.1       35.4       42.8       50.4       58.3
      66.0       73.9       81.9       89.7       97.4      105.1      112.6      120.0      127.4      134.4
     141.2      147.7      153.9      159.9      165.6      170.9      175.8      180.3      184.3      188.0
     191.0      193.7      195.9      197.7      198.8      199.6      199.8      199.5      198.7      197.3
     195.5      193.2      190.6      187.3      183.7      179.6      175.1      170.1      164.8      159.0
     152.9      146.5      139.8      132.7      125.3      117.9      110.1      102.2       94.0       85.8
      77.7       69.3       60.8       52.5       44.1       36.1       28.3       20.6       13.3        6.4
       1.4        0.0        0.0
       0.0        0.0        0.0        2.5        5.5        8.6       11.9       15.1       18.4       21.7
      25.1       28.5       31.9       35.1       38.5       41.9       45.0       48.1       51.1       54.1
      56.9       59.8       62.6       65.2       67.5       69.7       71.9       73.6       75.4       77.0
      78.6       79.8       80.6       81.6       82.3       82.8       82.9       83.0       82.8       82.4
      81.7       81.1       80.1       78.7       77.3       75.8       74.0       72.0       69.7       67.4
      64.9       62.2       59.4       56.5       53.4       50.5       47.0       43.7       40.1       36.8
      33.2       29.6       26.1       22.3       18.8       15.1       11.6        8.3        5.2        2.3
       0.0        0.0        0.0
       0.0        0.0        0.0        0.0        0.0        0.0        0.0        0.0        0.3        0.7
       1.1        1.5        2.0        2.5        2.8        3.2        3.6        4.1        4.6        4.9
       5.3        5.6        5.8        6.3        6.6        6.8        7.1        7.4        7.7        7.8
       8.1        8.3        8.4        8.5        8.7        8.8        8.8        8.8        8.7        8.6
       8.5        8.5        8.3        8.2        8.0        7.7        7.4        7.2        7.0        6.7
       6.3        5.9        5.6        5.3        4.8        4.4        4.0        3.4        2.9        2.6
       2.1        1.5        1.0        0.5        0.0        0.0        0.0        0.0        0.0        0.0
       0.0        0.0        0.0
       0.0        0.0        0.0        0.0        0.0        0.0        0.0        0.0        0.0        0.0
       0.0        0.0        0.0        0.0        0.0        0.0        0.0        0.0        0.0        0.0
       0.0        0.0        0.0        0.0        0.0        0.0        0.0        0.0        0.0        0.0
       0.0        0.0        0.0        0.0        0.0        0.0        0.0        0.0        0.0        0.0
       0.0        0.0        0.0        0.0        0.0        0.0        0.0        0.0        0.0        0.0
       0.0        0.0        0.0        0.0        0.0        0.0        0.0        0.0        0.0        0.0
       0.0        0.0        0.0        0.0        0.0        0.0        0.0        0.0        0.0        0.0
       0.0        0.0        0.0
       0.0        0.0        0.0        0.0        0.0        0.0        0.0        0.0        0.0        0.0
       0.0        0.0        0.0        0.0        0.0        0.0        0.0        0.0        0.0        0.0
       0.0        0.0        0.0        0.0        0.0        0.0        0.0        0.0        0.0        0.0
       0.0        0.0        0.0        0.0        0.0        0.0        0.0        0.0        0.0        0.0
       0.0        0.0        0.0        0.0        0.0        0.0        0.0        0.0        0.0        0.0
       0.0        0.0        0.0        0.0        0.0        0.0        0.0        0.0        0.0        0.0
       0.0        0.0        0.0        0.0        0.0        0.0        0.0        0.0        0.0        0.0
       0.0        0.0        0.0
       0.0        0.0        0.0        0.0        0.0        0.0        0.0        0.0        0.0        0.0
       0.0        0.0        0.0        0.0        0.0        0.0        0.0        0.0        0.0        0.0
       0.0        0.0        0.0        0.0        0.0        0.0        0.0        0.0        0.0        0.0
       0.0        0.0        0.0        0.0        0.0        0.0        0.0        0.0        0.0        0.0
       0.0        0.0        0.0        0.0        0.0        0.0        0.0        0.0        0.0        0.0
       0.0        0.0        0.0        0.0        0.0        0.0        0.0        0.0        0.0        0.0
       0.0        0.0        0.0        0.0        0.0        0.0        0.0        0.0        0.0        0.0
       0.0        0.0        0.0
       0.0        0.0        0.0        0.0        0.0        0.0        0.0        0.0        0.3        0.7
       1.1        1.5        2.0        2.5        2.8        3.2        3.6        4.1        4.6        4.9
       5.3        5.6        5.8        6.3        6.6        6.8        7.1        7.4        7.7        7.8
       8.1        8.3        8.4        8.5        8.7        8.8        8.8        8.8        8.7        8.6
       8.5        8.5        8.3        8.2        8.0        7.7        7.4        7.2        7.0        6.7
       6.3        5.9        5.6        5.3        4.8        4.4        4.0        3.4        2.9        2.6
       2.1        1.5        1.0        0.5        0.0        0.0        0.0        0.0        0.0        0.0
       0.0        0.0        0.0
       0.0        0.0        0.0        2.5        5.5        8.6       11.9       15.1       18.4       21.7
      25.1       28.5       31.9       35.1       38.5       41.9       45.0       48.1       51.1       54.1
      56.9       59.8       62.6       65.2       67.5       69.7       71.9       73.6       75.4       77.0
      78.6       79.8       80.6       81.6       82.3       82.8       82.9       83.0       82.8       82.4
      81.7       81.1       80.1       78.7       77.3       75.8       74.0       72.0       69.7       67.4
      64.9       62.2       59.4       56.5       53.4       50.5       47.0       43.7       40.1       36.8
      33.2       29.6       26.1       22.3       18.8       15.1       11.6        8.3        5.2        2.3
       0.0        0.0        0.0
       0.0        1.3        6.9       14.0       21.0       28.1       35.4       42.8       50.4       58.3
      66.0       73.9       81.9       89.7       97.4      105.1      112.6      120.0      127.4      134.4
     141.2      147.7      153.9      159.9      165.6      170.9      175.8      180.3      184.3      188.0
     191.0      193.7      195.9      197.7      198.8      199.6      199.8      199.5      198.7      197.3
     195.5      193.2      190.6      187.3      183.7      179.6      175.1      170.1      164.8      159.0
     152.9      146.5      139.8      132.7      125.3      117.9      110.1      102.2       94.0       85.8
      77.7       69.3       60.8       52.5       44.1       36.1       28.3       20.6       13.3        6.4
       1.4        0.0        0.0
       0.0        6.8       17.5       28.4       39.2       50.6       62.2       74.0       86.3       98.8
     111.1      123.5      135.9      148.2      160.4      172.6      184.6      196.5      208.1      218.9
     229.7      240.1      250.0      259.6      268.7      277.1      284.8      291.6      298.1      303.5
     308.5      312.3      315.5      318.0      319.4      320.0      319.8      318.9      317.0      314.2
     310.8      306.4      301.6      295.9      289.6      282.7      275.0      266.5      257.4      247.9
     237.7      227.3      216.1      204.5      192.7      180.5      168.1      155.3      142.2      128.8
     115.9      103.0       89.5       76.2       62.9       50.0       37.6       26.0       15.0        5.3
       0.0        0.0        0.0
       0.0       10.1       24.1       38.1       52.8       67.6       83.0       98.8      115.0      131.5
     148.1      164.6      180.9      197.2      213.2      228.6      244.5      259.7      274.9      289.4
     303.4      316.9      329.9      342.6      354.7      365.5      375.6      384.8      393.0      400.3
     406.6      411.8      415.9      419.0      420.9      421.9      421.7      420.4      417.8      414.5
     410.1      404.6      398.2      390.8      382.8      373.8      363.8      353.0      341.3      329.2
     316.3      302.8      288.6      273.6      258.5      242.7      226.6      209.9      193.1      175.7
     158.4      141.1      123.4      105.9       88.6       71.6       55.1       39.2       24.2       10.4
       1.4        0.0        0.0
       0.0       12.7       30.1       47.7       65.2       83.7      102.4      121.5      141.4      161.2
     180.9      201.2      220.9      240.6      259.9      279.2      298.0      316.3      334.3      351.4
     368.2      384.3      399.5      414.0      428.0      441.0      452.8      463.7      473.1      481.6
     489.0      495.0      499.8      503.3      505.7      506.8      506.6      505.0      502.2      498.0
     492.9      486.8      479.2      470.8      461.3      450.7      439.0      426.1      412.5      398.1
     383.0      366.9      350.0      332.4      314.3      296.2      276.9      257.3      237.5      216.8
     196.1      175.8      154.8      133.8      112.9       92.2       72.2       52.8       34.1       16.3
       2.9        0.0        0.0
       0.0       13.9       32.8       52.0       71.1       90.8      110.9      131.9      152.9      174.5
     196.2      217.8      239.2      260.6      281.5      302.0      322.2      342.3      361.7      380.0
     397.7      414.9      431.3      447.6      462.6      476.2      488.5      499.9      510.0      519.2
     526.9      533.1      538.1      541.9      544.2      545.4      544.9      543.4      540.4      536.0
     530.4      523.8      515.8      506.7      496.8      485.4      473.1      459.5      444.8      429.2
     413.0      395.8      377.7      358.9      339.4      319.8      299.0      278.6      257.2      235.1
     213.2      191.2      168.8      146.2      123.9      101.5       79.4       58.1       38.6       19.5
       3.6        0.0        0.0
