IESNA:LM-63-1995
[TEST]     20430
[MANUFAC]COOPER LIGHTING - SHAPER                                 
[LUMCAT]635-LS-14-CFL/2/26                                                              
[LUMINAIRE]INTERIOR WALL MOUNT LUMINAIRE WITH WHITE INTERIOR AND WHITE PLASTIC LENS                                      
[LAMP]TWO SYLVANIA 26 WATT CPFL LAMPS                                                 
[LAMPCAT]CF26DD/E/841. LUMEN RATING = 3600 LMS.                                          
[OTHER]ONE UNIVERSAL C2642UNVSE BALLAST OPERATING AT 120 VAC AND 57 WATTS              
TILT=NONE
1
      3600
1
73
17
1
1
  0.21
  1.08
  0.75
1
1
   57.0000
0 2.5 5 7.5 10 12.5 15 17.5 20 22.5 25 27.5 30 32.5 35 37.5
40 42.5 45 47.5 50 52.5 55 57.5 60 62.5 65 67.5 70 72.5 75
77.5 80 82.5 85 87.5 90 92.5 95 97.5 100 102.5 105 107.5 110
112.5 115 117.5 120 122.5 125 127.5 130 132.5 135 137.5 140
142.5 145 147.5 150 152.5 155 157.5 160 162.5 165 167.5 170
172.5 175 177.5 180
0 22.5 45 67.5 90 112.5 135 157.5 180 202.5 225 247.5
270 292.5 315 337.5 360
      98.8       88.0      124.3      182.9      249.9      307.1      355.7      392.4      420.2      438.8
     450.3      456.9      458.4      459.6      458.6      457.4      456.2      455.9      455.2      454.7
     455.2      456.7      459.8      463.5      468.4      472.5      477.2      481.1      484.0      486.7
     488.9      490.6      492.8      494.3      494.8      495.0      494.0      490.4      489.6      486.7
     483.5      479.4      472.8      466.7      460.6      453.0      444.0      434.8      425.8      415.1
     405.3      393.6      383.3      372.6      363.3      353.5      343.5      334.5      325.2      316.7
     307.5      303.1      300.5      292.6      279.7      258.2      228.7      191.8      143.4       94.8
      54.4       23.4       28.5
      98.8       82.8      108.7      158.3      218.4      278.5      329.1      370.1      404.8      429.7
     445.4      454.7      457.4      456.4      452.8      448.4      443.7      438.8      435.1      431.7
     429.0      427.5      428.0      429.5      431.9      434.6      436.5      439.3      441.8      443.7
     444.9      445.9      446.7      447.1      447.4      447.9      446.4      449.3      447.9      445.7
     441.3      437.5      432.9      426.8      421.9      415.1      406.5      398.7      390.4      382.3
     372.3      363.3      354.0      344.8      336.9      329.4      321.1      315.2      308.3      303.9
     299.5      299.2      295.3      285.1      267.5      241.9      209.9      168.0      122.9       81.1
      46.8       20.5       28.5
      98.8       78.7       91.4      128.0      180.7      233.1      287.0      333.5      376.2      406.5
     427.8      439.6      443.5      441.0      434.8      424.3      412.1      398.5      387.2      377.0
     366.5      357.2      348.7      343.3      339.1      336.7      334.0      333.8      332.8      332.1
     331.3      329.4      328.4      328.1      328.1      327.4      326.2      335.5      334.3      332.5
     329.1      326.7      324.2      321.1      317.4      312.8      307.5      302.2      297.8      292.6
     287.5      281.4      276.8      272.4      270.4      269.2      268.5      271.4      275.8      280.9
     284.6      284.6      280.9      269.5      251.1      222.8      186.3      141.9       99.9       61.2
      35.4       18.3       28.5
      98.8       80.9       84.8      102.4      129.5      160.7      196.7      234.3      270.9      304.1
     333.5      359.4      374.8      384.5      388.5      384.8      376.2      363.1      346.2      327.9
     307.5      288.7      269.2      250.7      232.1      218.4      208.2      201.3      195.0      190.6
     186.6      183.2      181.0      178.5      176.8      175.8      174.6      183.9      184.4      183.9
     182.9      182.2      180.5      180.0      179.0      177.8      175.8      174.9      174.9      176.1
     178.8      182.0      188.4      197.7      207.0      217.7      230.4      238.4      242.1      241.6
     236.5      228.9      214.5      194.7      171.5      145.1      119.7       93.1       69.6       44.9
      27.8       21.5       28.5
      98.8       99.6      110.7      128.7      148.4      168.3      187.2      205.0      221.7      235.8
     248.7      259.8      268.9      275.8      277.9      278.0      272.5      263.1      251.9      238.7
     224.1      208.7      190.8      173.2      154.8      137.4      119.9      105.6       91.5       76.8
      68.0       64.6       61.9       58.7       56.4       54.6       54.1       64.6       66.0       67.1
      67.6       69.4       70.4       71.9       74.1       75.4       77.5       80.0       84.4       92.1
     100.5      112.7      124.0      137.4      147.4      156.4      163.8      169.4      173.0      170.3
     162.4      151.6      139.0      126.1      113.8      100.1       87.8       75.6       64.6       51.1
      39.1       31.7       28.5
      98.8      120.9      144.8      165.1      182.9      197.2      209.4      216.5      220.9      220.6
     217.9      213.1      206.0      199.1      190.6      179.3      168.3      156.6      143.1      129.2
     115.5      102.4       89.2       77.9       67.9       57.6       48.3       41.0       33.7       26.8
      21.7       16.8       13.4        9.5        7.3        4.9        5.3       11.0       12.7       14.9
      16.1       19.3       21.9       26.1       30.7       35.6       40.5       47.1       55.4       63.3
      71.1       80.4       88.7       98.2      105.3      112.9      120.2      126.8      131.7      136.8
     140.7      144.4      146.8      145.6      141.9      133.4      122.9      108.2       92.6       73.3
      58.1       44.4       28.5
      98.8      126.8      153.1      172.4      186.8      194.5      199.4      202.8      201.8      199.9
     193.5      185.4      174.4      162.9      150.5      137.8      125.8      113.1      101.6       90.4
      79.9       70.1       61.0       52.5       45.1       37.8       32.0       25.8       21.2       16.1
      12.2        8.5        5.3        2.2        0.0        0.0        0.0        2.7        4.1        5.6
       7.8        9.0       11.7       14.4       16.6       20.7       23.9       28.0       32.2       37.6
      44.6       50.5       58.6       66.0       74.8       83.6       92.1      101.1      109.9      117.0
     125.3      130.2      134.6      138.0      138.0      136.5      132.9      127.5      115.3       95.0
      75.8       51.0       28.5
      98.8      129.0      152.9      170.0      182.2      192.6      198.4      199.4      195.7      188.2
     177.3      166.3      153.6      142.4      130.9      118.2      107.5       96.3       85.8       76.2
      68.2       60.0       51.7       45.9       39.0       33.7       27.8       23.2       19.3       14.6
      11.7        7.5        4.9        1.7        0.0        0.0        0.0        0.0        2.2        2.9
       5.3        6.6        8.8       11.7       13.6       16.8       19.5       22.4       25.1       29.8
      33.4       39.0       43.9       50.0       56.9       64.0       71.1       80.1       88.7       96.5
     106.0      114.8      123.1      131.2      138.0      141.9      142.2      137.3      126.8      109.4
      84.1       53.2       28.5
      98.8      125.8      147.0      163.6      178.0      188.4      194.3      194.5      190.6      181.5
     171.2      158.8      147.5      136.1      124.6      113.1      102.1       90.6       81.4       72.6
      65.3       57.6       50.8       44.4       38.3       33.2       27.6       23.4       19.3       15.1
      11.7        7.5        5.6        1.9        0.2        0.0        0.0        0.0        0.7        2.9
       4.6        6.6        8.5       10.7       13.2       15.6       17.3       20.7       23.2       27.1
      31.2       35.4       40.3       46.4       51.7       58.1       65.5       72.6       80.4       88.9
      97.7      107.0      115.8      125.1      132.1      135.8      137.8      133.6      124.3      106.8
      83.6       53.9       28.5
      98.8      129.0      152.9      170.0      182.2      192.6      198.4      199.4      195.7      188.2
     177.3      166.3      153.6      142.4      130.9      118.2      107.5       96.3       85.8       76.2
      68.2       60.0       51.7       45.9       39.0       33.7       27.8       23.2       19.3       14.6
      11.7        7.5        4.9        1.7        0.0        0.0        0.0        0.0        2.2        2.9
       5.3        6.6        8.8       11.7       13.6       16.8       19.5       22.4       25.1       29.8
      33.4       39.0       43.9       50.0       56.9       64.0       71.1       80.1       88.7       96.5
     106.0      114.8      123.1      131.2      138.0      141.9      142.2      137.3      126.8      109.4
      84.1       53.2       28.5
      98.8      126.8      153.1      172.4      186.8      194.5      199.4      202.8      201.8      199.9
     193.5      185.4      174.4      162.9      150.5      137.8      125.8      113.1      101.6       90.4
      79.9       70.1       61.0       52.5       45.1       37.8       32.0       25.8       21.2       16.1
      12.2        8.5        5.3        2.2        0.0        0.0        0.0        2.7        4.1        5.6
       7.8        9.0       11.7       14.4       16.6       20.7       23.9       28.0       32.2       37.6
      44.6       50.5       58.6       66.0       74.8       83.6       92.1      101.1      109.9      117.0
     125.3      130.2      134.6      138.0      138.0      136.5      132.9      127.5      115.3       95.0
      75.8       51.0       28.5
      98.8      120.9      144.8      165.1      182.9      197.2      209.4      216.5      220.9      220.6
     217.9      213.1      206.0      199.1      190.6      179.3      168.3      156.6      143.1      129.2
     115.5      102.4       89.2       77.9       67.9       57.6       48.3       41.0       33.7       26.8
      21.7       16.8       13.4        9.5        7.3        4.9        5.3       11.0       12.7       14.9
      16.1       19.3       21.9       26.1       30.7       35.6       40.5       47.1       55.4       63.3
      71.1       80.4       88.7       98.2      105.3      112.9      120.2      126.8      131.7      136.8
     140.7      144.4      146.8      145.6      141.9      133.4      122.9      108.2       92.6       73.3
      58.1       44.4       28.5
      98.8       99.6      110.7      128.7      148.4      168.3      187.2      205.0      221.7      235.8
     248.7      259.8      268.9      275.8      277.9      278.0      272.5      263.1      251.9      238.7
     224.1      208.7      190.8      173.2      154.8      137.4      119.9      105.6       91.5       76.8
      68.0       64.6       61.9       58.7       56.4       54.6       54.1       64.6       66.0       67.1
      67.6       69.4       70.4       71.9       74.1       75.4       77.5       80.0       84.4       92.1
     100.5      112.7      124.0      137.4      147.4      156.4      163.8      169.4      173.0      170.3
     162.4      151.6      139.0      126.1      113.8      100.1       87.8       75.6       64.6       51.1
      39.1       31.7       28.5
      98.8       80.9       84.8      102.4      129.5      160.7      196.7      234.3      270.9      304.1
     333.5      359.4      374.8      384.5      388.5      384.8      376.2      363.1      346.2      327.9
     307.5      288.7      269.2      250.7      232.1      218.4      208.2      201.3      195.0      190.6
     186.6      183.2      181.0      178.5      176.8      175.8      174.6      183.9      184.4      183.9
     182.9      182.2      180.5      180.0      179.0      177.8      175.8      174.9      174.9      176.1
     178.8      182.0      188.4      197.7      207.0      217.7      230.4      238.4      242.1      241.6
     236.5      228.9      214.5      194.7      171.5      145.1      119.7       93.1       69.6       44.9
      27.8       21.5       28.5
      98.8       78.7       91.4      128.0      180.7      233.1      287.0      333.5      376.2      406.5
     427.8      439.6      443.5      441.0      434.8      424.3      412.1      398.5      387.2      377.0
     366.5      357.2      348.7      343.3      339.1      336.7      334.0      333.8      332.8      332.1
     331.3      329.4      328.4      328.1      328.1      327.4      326.2      335.5      334.3      332.5
     329.1      326.7      324.2      321.1      317.4      312.8      307.5      302.2      297.8      292.6
     287.5      281.4      276.8      272.4      270.4      269.2      268.5      271.4      275.8      280.9
     284.6      284.6      280.9      269.5      251.1      222.8      186.3      141.9       99.9       61.2
      35.4       18.3       28.5
      98.8       82.8      108.7      158.3      218.4      278.5      329.1      370.1      404.8      429.7
     445.4      454.7      457.4      456.4      452.8      448.4      443.7      438.8      435.1      431.7
     429.0      427.5      428.0      429.5      431.9      434.6      436.5      439.3      441.8      443.7
     444.9      445.9      446.7      447.1      447.4      447.9      446.4      449.3      447.9      445.7
     441.3      437.5      432.9      426.8      421.9      415.1      406.5      398.7      390.4      382.3
     372.3      363.3      354.0      344.8      336.9      329.4      321.1      315.2      308.3      303.9
     299.5      299.2      295.3      285.1      267.5      241.9      209.9      168.0      122.9       81.1
      46.8       20.5       28.5
      98.8       88.0      124.3      182.9      249.9      307.1      355.7      392.4      420.2      438.8
     450.3      456.9      458.4      459.6      458.6      457.4      456.2      455.9      455.2      454.7
     455.2      456.7      459.8      463.5      468.4      472.5      477.2      481.1      484.0      486.7
     488.9      490.6      492.8      494.3      494.8      495.0      494.0      490.4      489.6      486.7
     483.5      479.4      472.8      466.7      460.6      453.0      444.0      434.8      425.8      415.1
     405.3      393.6      383.3      372.6      363.3      353.5      343.5      334.5      325.2      316.7
     307.5      303.1      300.5      292.6      279.7      258.2      228.7      191.8      143.4       94.8
      54.4       23.4       28.5
