IESNA:LM-63-1995
[TEST]    18660A
[MANUFAC]COOPER LIGHTING - SHAPER                             
[LUMCAT]635-CF2/26                                                                      
[LUMINAIRE]FLUORESCENT WALL MOUNT LUMINAIRE WITH WHITE INTERIOR AND CONVEX WHITE PLASTIC LENS                               
[LAMP]TWO 26 WATT CPFL LAMPS. LUMEN RATING = 3600 LMS.                                
[OTHER]SIMULATED REPORT CREATED FROM TEST OF 13 WATT LAMPS                             
TILT=NONE
1
      3600
1
73
17
1
1
  0.17
  0.92
  0.75
1
1
    0.0000
0 2.5 5 7.5 10 12.5 15 17.5 20 22.5 25 27.5 30 32.5 35 37.5
40 42.5 45 47.5 50 52.5 55 57.5 60 62.5 65 67.5 70 72.5 75
77.5 80 82.5 85 87.5 90 92.5 95 97.5 100 102.5 105 107.5 110
112.5 115 117.5 120 122.5 125 127.5 130 132.5 135 137.5 140
142.5 145 147.5 150 152.5 155 157.5 160 162.5 165 167.5 170
172.5 175 177.5 180
0 22.5 45 67.5 90 112.5 135 157.5 180 202.5 225 247.5
270 292.5 315 337.5 360
      60.4       59.2       67.9       79.9       92.9      105.5      117.3      128.6      139.6      150.0
     160.1      169.6      178.0      185.8      191.6      194.1      192.5      187.3      180.8      173.7
     165.6      157.5      147.9      138.5      128.2      118.3      108.4       99.4       92.1       85.3
      79.7       75.1       72.7       70.3       68.2       66.3       65.4       77.8       79.1       80.3
      81.5       82.6       83.5       84.8       86.3       88.1       90.7       95.0      100.6      107.5
     115.5      123.8      131.8      139.6      145.9      150.7      154.4      155.7      153.9      146.6
     137.3      127.7      117.6      107.9       97.6       87.2       77.4       67.5       58.2       48.6
      39.0       30.9       31.2
      60.4       54.3       68.7       92.6      124.8      160.5      199.1      238.3      279.5      317.4
     352.2      383.5      407.9      426.8      437.3      440.5      438.3      430.0      417.9      403.8
     387.6      370.1      351.3      332.4      313.2      296.7      282.0      270.5      261.3      256.2
     253.9      252.4      250.7      248.8      247.0      244.7      242.4      259.8      260.3      260.3
     259.8      259.0      257.5      255.6      253.0      250.7      248.8      246.6      244.7      244.7
     247.0      252.0      260.3      271.8      283.3      295.2      306.6      314.9      321.5      324.2
     320.0      304.4      281.0      253.4      222.1      189.0      158.7      128.9      102.2       75.4
      54.0       39.3       31.2
      60.4       56.6       86.9      135.3      195.9      255.2      316.8      374.2      428.5      472.1
     504.9      527.3      539.7      545.8      545.8      540.7      531.4      520.5      508.5      496.6
     484.2      473.1      463.5      454.8      448.2      444.7      444.1      446.5      449.2      452.0
     454.3      456.1      456.5      456.5      455.6      454.3      451.1      457.1      456.5      455.6
     453.3      451.1      446.9      441.8      435.1      428.5      422.1      414.7      407.0      398.1
     389.5      380.8      373.9      368.8      366.9      367.8      372.9      379.3      386.7      393.1
     397.2      397.8      389.9      373.9      348.1      303.1      251.5      199.7      152.8      109.1
      76.0       50.2       31.2
      60.4       59.8      104.4      171.1      240.6      308.1      377.4      437.7      487.4      523.2
     547.1      562.3      571.0      575.7      576.6      574.8      571.0      566.5      561.8      558.2
     555.9      555.0      555.4      558.2      562.3      567.8      575.1      583.4      590.4      597.2
     602.2      606.4      609.2      610.2      610.2      609.2      606.9      598.7      598.1      595.8
     592.6      588.9      583.4      575.7      566.5      556.9      547.1      536.5      524.7      511.3
     497.9      483.6      470.4      456.1      443.7      432.2      423.0      417.5      415.3      414.7
     414.3      413.4      410.2      400.0      379.9      349.9      305.3      243.8      188.6      134.4
      88.8       56.6       31.2
      60.4       61.3      112.3      180.9      256.2      325.1      394.0      451.4      495.7      529.8
     551.2      565.5      574.8      581.2      584.0      584.7      584.4      583.0      582.1      582.1
     583.4      585.7      591.3      597.2      604.5      612.8      622.6      631.8      640.5      648.7
     654.8      660.2      663.4      665.3      665.7      665.3      662.5      641.8      640.5      638.2
     635.0      630.9      625.2      617.5      606.9      596.4      585.7      573.8      561.0      546.1
     531.1      515.4      500.2      484.6      468.9      454.8      440.9      430.0      422.6      418.5
     415.3      412.1      408.3      401.0      384.4      355.4      318.7      258.1      200.1      142.1
      92.6       55.3       31.2
      60.4       59.8      104.4      171.1      240.6      308.1      377.4      437.7      487.4      523.2
     547.1      562.3      571.0      575.7      576.6      574.8      571.0      566.5      561.8      558.2
     555.9      555.0      555.4      558.2      562.3      567.8      575.1      583.4      590.4      597.2
     602.2      606.4      609.2      610.2      610.2      609.2      606.9      598.7      598.1      595.8
     592.6      588.9      583.4      575.7      566.5      556.9      547.1      536.5      524.7      511.3
     497.9      483.6      470.4      456.1      443.7      432.2      423.0      417.5      415.3      414.7
     414.3      413.4      410.2      400.0      379.9      349.9      305.3      243.8      188.6      134.4
      88.8       56.6       31.2
      60.4       56.6       86.9      135.3      195.9      255.2      316.8      374.2      428.5      472.1
     504.9      527.3      539.7      545.8      545.8      540.7      531.4      520.5      508.5      496.6
     484.2      473.1      463.5      454.8      448.2      444.7      444.1      446.5      449.2      452.0
     454.3      456.1      456.5      456.5      455.6      454.3      451.1      457.1      456.5      455.6
     453.3      451.1      446.9      441.8      435.1      428.5      422.1      414.7      407.0      398.1
     389.5      380.8      373.9      368.8      366.9      367.8      372.9      379.3      386.7      393.1
     397.2      397.8      389.9      373.9      348.1      303.1      251.5      199.7      152.8      109.1
      76.0       50.2       31.2
      60.4       54.3       68.7       92.6      124.8      160.5      199.1      238.3      279.5      317.4
     352.2      383.5      407.9      426.8      437.3      440.5      438.3      430.0      417.9      403.8
     387.6      370.1      351.3      332.4      313.2      296.7      282.0      270.5      261.3      256.2
     253.9      252.4      250.7      248.8      247.0      244.7      242.4      259.8      260.3      260.3
     259.8      259.0      257.5      255.6      253.0      250.7      248.8      246.6      244.7      244.7
     247.0      252.0      260.3      271.8      283.3      295.2      306.6      314.9      321.5      324.2
     320.0      304.4      281.0      253.4      222.1      189.0      158.7      128.9      102.2       75.4
      54.0       39.3       31.2
      60.4       59.2       67.9       79.9       92.9      105.5      117.3      128.6      139.6      150.0
     160.1      169.6      178.0      185.8      191.6      194.1      192.5      187.3      180.8      173.7
     165.6      157.5      147.9      138.5      128.2      118.3      108.4       99.4       92.1       85.3
      79.7       75.1       72.7       70.3       68.2       66.3       65.4       77.8       79.1       80.3
      81.5       82.6       83.5       84.8       86.3       88.1       90.7       95.0      100.6      107.5
     115.5      123.8      131.8      139.6      145.9      150.7      154.4      155.7      153.9      146.6
     137.3      127.7      117.6      107.9       97.6       87.2       77.4       67.5       58.2       48.6
      39.0       30.9       31.2
      60.4       67.2       75.1       80.5       83.7       86.5       88.8       91.6       94.8       98.0
     101.2      105.0      108.6      111.4      112.3      111.4      108.6      104.1       98.4       92.0
      84.3       76.9       68.7       60.7       53.0       46.1       39.3       32.7       27.2       21.8
      17.1       12.9        9.3        6.1        3.3        2.4        2.0        4.3        6.1        8.4
      11.2       13.9       17.6       21.8       26.3       31.0       36.5       42.5       48.9       56.2
      63.6       71.3       78.8       85.6       91.1       95.8       98.4       99.9       99.9       99.9
      99.3       99.3       99.0       98.4       95.8       92.0       86.5       78.3       66.4       51.1
      40.6       32.7       31.2
      60.4       70.9       79.2       86.9       94.8      103.5      112.3      121.0      129.8      133.8
     135.3      133.4      129.3      123.3      116.9      109.1      100.9       92.0       83.7       75.4
      67.7       60.4       53.0       46.6       40.0       34.2       28.6       23.7       19.5       14.8
      11.2        7.5        4.3        2.0        0.5        0.5        0.5        0.5        0.5        1.1
       2.9        5.6        8.4       11.6       15.4       19.0       23.7       28.6       33.6       39.3
      45.1       52.1       58.5       66.4       74.1       82.0       89.7       97.7      105.4      111.8
     117.4      121.0      122.3      120.6      115.9      109.5      101.2       89.7       77.3       63.6
      47.0       34.6       31.2
      60.4       73.2       84.3       95.2      107.6      119.1      131.5      139.5      142.1      141.3
     137.6      131.5      124.8      117.4      109.5      100.9       92.6       84.3       76.4       69.0
      61.7       54.9       48.3       42.5       36.5       31.4       26.3       22.2       18.0       13.9
      10.7        7.1        4.3        1.4        0.5        0.5        0.5        0.5        0.5        1.4
       3.3        5.2        8.4       10.7       13.9       17.1       21.2       25.4       30.4       35.5
      41.0       47.0       53.4       59.8       66.4       73.2       80.5       87.9       95.8      103.1
     110.5      117.4      123.3      127.4      129.3      127.0      119.7      107.3       92.0       73.7
      56.2       37.4       31.2
      60.4       74.1       85.6       98.0      111.4      123.8      135.7      142.1      143.6      141.3
     136.2      129.8      122.9      114.6      106.7       98.0       90.3       81.5       74.1       66.8
      59.8       53.4       47.0       41.5       35.5       30.4       25.4       21.2       17.1       13.5
      10.3        7.1        4.3        1.4        0.5        0.5        0.5        0.5        0.5        2.0
       3.9        6.1        8.4       11.2       14.4       17.6       21.2       25.9       30.1       35.5
      41.0       47.0       53.0       59.8       65.8       72.2       79.2       86.5       93.9      100.9
     108.6      115.5      122.3      128.0      131.5      132.1      127.4      115.9      100.9       81.1
      61.3       40.6       31.2
      60.4       73.2       84.3       95.2      107.6      119.1      131.5      139.5      142.1      141.3
     137.6      131.5      124.8      117.4      109.5      100.9       92.6       84.3       76.4       69.0
      61.7       54.9       48.3       42.5       36.5       31.4       26.3       22.2       18.0       13.9
      10.7        7.1        4.3        1.4        0.5        0.5        0.5        0.5        0.5        1.4
       3.3        5.2        8.4       10.7       13.9       17.1       21.2       25.4       30.4       35.5
      41.0       47.0       53.4       59.8       66.4       73.2       80.5       87.9       95.8      103.1
     110.5      117.4      123.3      127.4      129.3      127.0      119.7      107.3       92.0       73.7
      56.2       37.4       31.2
      60.4       70.9       79.2       86.9       94.8      103.5      112.3      121.0      129.8      133.8
     135.3      133.4      129.3      123.3      116.9      109.1      100.9       92.0       83.7       75.4
      67.7       60.4       53.0       46.6       40.0       34.2       28.6       23.7       19.5       14.8
      11.2        7.5        4.3        2.0        0.5        0.5        0.5        0.5        0.5        1.1
       2.9        5.6        8.4       11.6       15.4       19.0       23.7       28.6       33.6       39.3
      45.1       52.1       58.5       66.4       74.1       82.0       89.7       97.7      105.4      111.8
     117.4      121.0      122.3      120.6      115.9      109.5      101.2       89.7       77.3       63.6
      47.0       34.6       31.2
      60.4       67.2       75.1       80.5       83.7       86.5       88.8       91.6       94.8       98.0
     101.2      105.0      108.6      111.4      112.3      111.4      108.6      104.1       98.4       92.0
      84.3       76.9       68.7       60.7       53.0       46.1       39.3       32.7       27.2       21.8
      17.1       12.9        9.3        6.1        3.3        2.4        2.0        4.3        6.1        8.4
      11.2       13.9       17.6       21.8       26.3       31.0       36.5       42.5       48.9       56.2
      63.6       71.3       78.8       85.6       91.1       95.8       98.4       99.9       99.9       99.9
      99.3       99.3       99.0       98.4       95.8       92.0       86.5       78.3       66.4       51.1
      40.6       32.7       31.2
      60.4       59.2       67.9       79.9       92.9      105.5      117.3      128.6      139.6      150.0
     160.1      169.6      178.0      185.8      191.6      194.1      192.5      187.3      180.8      173.7
     165.6      157.5      147.9      138.5      128.2      118.3      108.4       99.4       92.1       85.3
      79.7       75.1       72.7       70.3       68.2       66.3       65.4       77.8       79.1       80.3
      81.5       82.6       83.5       84.8       86.3       88.1       90.7       95.0      100.6      107.5
     115.5      123.8      131.8      139.6      145.9      150.7      154.4      155.7      153.9      146.6
     137.3      127.7      117.6      107.9       97.6       87.2       77.4       67.5       58.2       48.6
      39.0       30.9       31.2
