IESNA:LM-63-1995
[TEST]     16792
[MANUFAC]COOPER LIGHTING - SHAPER                                         
[LUMCAT]635-CF1/26-120SSB-NA                                                            
[LUMINAIRE]WALL MOUNT LUMINAIRE WITH WHITE INTERIOR AND CURVED WHITE PLASTIC LENS WITH OPEN TOP AND BOTTOM      
[LAMP]ONE SYLVANIA 26 WATT CPFL LAMP                                                  
[LAMPCAT]CF26DD/E/81. LUMEN RATING = 1825 LMS.                                           
[OTHER]ONE UNIVERSIAL C2642UNVSE BALLAST OPERATING AT 120 VAC AND 30 WATTS             
TILT=NONE
1
      1825
1
73
17
1
1
   .17
  1.08
   .75
1
1
   30.0000
0 2.5 5 7.5 10 12.5 15 17.5 20 22.5 25 27.5 30 32.5 35 37.5
40 42.5 45 47.5 50 52.5 55 57.5 60 62.5 65 67.5 70 72.5 75
77.5 80 82.5 85 87.5 90 92.5 95 97.5 100 102.5 105 107.5 110
112.5 115 117.5 120 122.5 125 127.5 130 132.5 135 137.5 140
142.5 145 147.5 150 152.5 155 157.5 160 162.5 165 167.5 170
172.5 175 177.5 180
0 22.5 45 67.5 90 112.5 135 157.5 180 202.5 225 247.5
270 292.5 315 337.5 360
      28.4       30.6       35.8       42.2       50.1       58.5       68.0       77.1       87.0       96.6
     106.1      115.7      124.7      133.6      141.1      147.2      149.6      149.3      145.0      137.8
     128.6      118.8      107.6       96.3       84.6       73.7       62.7       52.8       44.3       38.0
      35.9       35.0       34.2       33.3       32.7       31.9       31.8       40.2       40.7       41.2
      41.6       42.2       42.6       43.2       43.5       44.2       45.7       49.1       54.9       63.2
      72.6       82.7       92.8      103.1      112.3      120.9      126.8      128.9      126.9      121.4
     114.2      105.7       96.0       86.2       75.4       63.9       52.9       41.5       31.0       21.6
      14.6        9.3        8.0
      28.4       28.5       33.6       41.9       54.0       68.7       86.0      104.0      123.2      142.0
     157.8      172.5      184.3      193.2      199.0      202.3      202.3      198.1      191.3      183.2
     174.3      165.4      156.2      147.8      139.6      133.3      128.9      126.8      125.2      124.2
     124.0      123.7      123.2      122.9      122.4      122.1      121.9      121.0      121.0      120.8
     120.3      120.0      119.3      118.4      117.4      116.8      116.6      117.0      117.7      119.1
     121.1      124.0      127.9      133.7      140.8      148.4      156.4      161.5      163.6      162.7
     158.9      152.2      141.5      127.9      111.6       91.6       72.9       55.3       40.3       26.4
      16.5       11.2        8.0
      28.4       29.1       37.1       55.5       79.7      106.1      133.6      158.0      181.1      200.0
     214.2      225.4      231.9      235.9      236.5      234.9      232.5      229.8      227.2      224.6
     221.8      220.0      219.1      219.3      220.5      222.3      224.4      226.7      228.8      230.4
     231.9      232.8      233.5      233.8      234.4      234.4      234.4      233.8      233.3      232.5
     231.4      230.1      228.0      225.6      222.5      219.7      216.5      213.0      209.1      205.3
     201.1      196.6      192.9      189.5      186.4      183.9      181.1      178.7      177.1      175.5
     173.4      170.6      165.0      155.4      142.6      126.6      107.2       83.4       60.2       38.7
      23.6       13.8        8.0
      28.4       29.8       42.4       66.9       98.1      129.4      157.5      182.5      203.9      220.2
     231.9      240.9      247.2      252.2      255.9      258.7      260.8      262.4      264.7      267.3
     270.5      274.2      278.7      282.9      287.6      292.2      296.7      301.1      304.6      307.7
     309.9      312.0      313.2      314.8      315.8      316.2      316.4      315.3      314.6      313.5
     311.8      309.9      307.2      303.5      299.0      294.6      289.9      284.6      278.7      272.6
     266.1      258.9      251.9      244.5      237.0      229.3      221.2      213.4      205.3      197.6
     189.5      181.6      172.5      164.6      153.1      137.3      119.3       97.2       72.8       48.0
      28.2       14.4        8.0
      28.4       30.6       46.1       72.8      104.6      135.0      162.0      185.5      205.8      221.4
     232.8      242.2      250.1      256.6      262.2      267.1      271.0      275.2      279.2      283.6
     288.8      294.1      300.1      305.7      311.4      316.7      322.1      326.9      331.1      334.9
     337.7      340.2      342.1      343.9      345.2      345.8      346.0      344.7      343.7      342.3
     340.5      338.1      335.1      330.9      326.0      320.6      315.1      308.8      302.0      295.2
     287.8      279.4      271.3      262.9      254.3      245.6      236.4      227.2      217.6      208.4
     198.4      188.1      177.6      168.0      157.8      142.9      125.0      103.0       78.3       51.1
      28.7       14.7        8.0
      28.4       29.8       42.4       66.9       98.1      129.4      157.5      182.5      203.9      220.2
     231.9      240.9      247.2      252.2      255.9      258.7      260.8      262.4      264.7      267.3
     270.5      274.2      278.7      282.9      287.6      292.2      296.7      301.1      304.6      307.7
     309.9      312.0      313.2      314.8      315.8      316.2      316.4      315.3      314.6      313.5
     311.8      309.9      307.2      303.5      299.0      294.6      289.9      284.6      278.7      272.6
     266.1      258.9      251.9      244.5      237.0      229.3      221.2      213.4      205.3      197.6
     189.5      181.6      172.5      164.6      153.1      137.3      119.3       97.2       72.8       48.0
      28.2       14.4        8.0
      28.4       29.1       37.1       55.5       79.7      106.1      133.6      158.0      181.1      200.0
     214.2      225.4      231.9      235.9      236.5      234.9      232.5      229.8      227.2      224.6
     221.8      220.0      219.1      219.3      220.5      222.3      224.4      226.7      228.8      230.4
     231.9      232.8      233.5      233.8      234.4      234.4      234.4      233.8      233.3      232.5
     231.4      230.1      228.0      225.6      222.5      219.7      216.5      213.0      209.1      205.3
     201.1      196.6      192.9      189.5      186.4      183.9      181.1      178.7      177.1      175.5
     173.4      170.6      165.0      155.4      142.6      126.6      107.2       83.4       60.2       38.7
      23.6       13.8        8.0
      28.4       28.5       33.6       41.9       54.0       68.7       86.0      104.0      123.2      142.0
     157.8      172.5      184.3      193.2      199.0      202.3      202.3      198.1      191.3      183.2
     174.3      165.4      156.2      147.8      139.6      133.3      128.9      126.8      125.2      124.2
     124.0      123.7      123.2      122.9      122.4      122.1      121.9      121.0      121.0      120.8
     120.3      120.0      119.3      118.4      117.4      116.8      116.6      117.0      117.7      119.1
     121.1      124.0      127.9      133.7      140.8      148.4      156.4      161.5      163.6      162.7
     158.9      152.2      141.5      127.9      111.6       91.6       72.9       55.3       40.3       26.4
      16.5       11.2        8.0
      28.4       30.6       35.8       42.2       50.1       58.5       68.0       77.1       87.0       96.6
     106.1      115.7      124.7      133.6      141.1      147.2      149.6      149.3      145.0      137.8
     128.6      118.8      107.6       96.3       84.6       73.7       62.7       52.8       44.3       38.0
      35.9       35.0       34.2       33.3       32.7       31.9       31.8       40.2       40.7       41.2
      41.6       42.2       42.6       43.2       43.5       44.2       45.7       49.1       54.9       63.2
      72.6       82.7       92.8      103.1      112.3      120.9      126.8      128.9      126.9      121.4
     114.2      105.7       96.0       86.2       75.4       63.9       52.9       41.5       31.0       21.6
      14.6        9.3        8.0
      28.4       32.4       37.3       42.7       48.2       53.6       58.1       59.9       59.9       59.2
      58.1       56.9       55.5       54.0       52.4       50.1       47.1       43.5       39.8       36.4
      33.1       30.3       27.0       24.0       21.0       18.2       15.4       13.1       11.0        8.9
       7.3        5.7        4.2        3.1        2.1        1.5        1.2        3.9        4.7        5.4
       6.0        7.0        8.4        9.8       11.5       13.1       15.2       17.5       20.1       23.1
      26.6       30.8       35.2       40.6       45.9       51.3       56.4       61.5       67.1       72.0
      75.7       77.3       76.0       72.9       68.1       60.8       51.8       39.8       29.1       21.2
      15.4        9.8        8.0
      28.4       31.5       36.6       42.4       46.9       50.3       54.0       57.6       60.2       62.0
      62.7       62.4       61.3       59.2       56.6       52.9       49.5       45.3       40.8       36.6
      32.7       28.9       25.4       22.2       18.9       15.9       12.8       10.2        8.1        6.8
       5.4        3.9        2.8        1.8        1.2         .5         .5         .5        1.0        1.5
       2.1        3.1        3.9        4.9        6.0        7.5        9.1        7.8       12.3       14.4
      16.8       19.1       21.7       24.3       27.0       29.8       32.9       35.6       38.7       41.5
      43.5       45.3       46.1       46.1       45.6       44.8       42.4       37.7       30.8       21.9
      13.3        8.9        8.0
      28.4       30.6       35.6       41.5       48.0       54.3       60.3       64.5       66.5       66.5
      65.5       63.9       61.5       58.2       54.8       51.1       47.1       42.9       39.0       35.0
      30.8       27.3       23.6       20.3       17.3       14.4       11.7        9.6        7.9        6.3
       5.2        3.9        3.1        2.1        1.2         .5         .5         .5        1.2        1.6
       2.3        3.1        3.7        4.7        5.7        6.8        8.1       10.0       12.6       16.1
      20.3       24.7       29.6       35.0       40.3       46.4       52.4       56.4       59.0       60.6
      60.8       60.6       59.9       57.8       54.3       48.5       42.4       36.1       30.1       22.2
      14.2        8.1        8.0
      28.4       29.4       33.8       39.4       47.1       54.8       61.1       64.4       64.5       63.4
      61.3       58.7       55.3       51.5       47.7       43.8       40.1       36.1       32.4       28.9
      25.6       22.6       19.6       17.0       14.7       12.6       10.5        8.9        7.5        6.0
       4.9        3.7        2.8        1.8        1.2         .5         .5         .7        1.5        1.8
       2.6        1.6        3.9        4.7        5.7        6.8        7.9        9.4       11.0       12.8
      14.9       17.3       19.8       22.8       25.9       29.6       33.1       36.9       40.8       45.0
      49.2       52.7       55.7       57.8       57.8       54.5       47.7       38.7       30.6       22.2
      14.2        7.8        8.0
      28.4       30.6       35.6       41.5       48.0       54.3       60.3       64.5       66.5       66.5
      65.5       63.9       61.5       58.2       54.8       51.1       47.1       42.9       39.0       35.0
      30.8       27.3       23.6       20.3       17.3       14.4       11.7        9.6        7.9        6.3
       5.2        3.9        3.1        2.1        1.2         .5         .5         .5        1.2        1.6
       2.3        3.1        3.7        4.7        5.7        6.8        8.1       10.0       12.6       16.1
      20.3       24.7       29.6       35.0       40.3       46.4       52.4       56.4       59.0       60.6
      60.8       60.6       59.9       57.8       54.3       48.5       42.4       36.1       30.1       22.2
      14.2        8.1        8.0
      28.4       31.5       36.6       42.4       46.9       50.3       54.0       57.6       60.2       62.0
      62.7       62.4       61.3       59.2       56.6       52.9       49.5       45.3       40.8       36.6
      32.7       28.9       25.4       22.2       18.9       15.9       12.8       10.2        8.1        6.8
       5.4        3.9        2.8        1.8        1.2         .5         .5         .5        1.0        1.5
       2.1        3.1        3.9        4.9        6.0        7.5        9.1        7.8       12.3       14.4
      16.8       19.1       21.7       24.3       27.0       29.8       32.9       35.6       38.7       41.5
      43.5       45.3       46.1       46.1       45.6       44.8       42.4       37.7       30.8       21.9
      13.3        8.9        8.0
      28.4       32.4       37.3       42.7       48.2       53.6       58.1       59.9       59.9       59.2
      58.1       56.9       55.5       54.0       52.4       50.1       47.1       43.5       39.8       36.4
      33.1       30.3       27.0       24.0       21.0       18.2       15.4       13.1       11.0        8.9
       7.3        5.7        4.2        3.1        2.1        1.5        1.2        3.9        4.7        5.4
       6.0        7.0        8.4        9.8       11.5       13.1       15.2       17.5       20.1       23.1
      26.6       30.8       35.2       40.6       45.9       51.3       56.4       61.5       67.1       72.0
      75.7       77.3       76.0       72.9       68.1       60.8       51.8       39.8       29.1       21.2
      15.4        9.8        8.0
      28.4       30.6       35.8       42.2       50.1       58.5       68.0       77.1       87.0       96.6
     106.1      115.7      124.7      133.6      141.1      147.2      149.6      149.3      145.0      137.8
     128.6      118.8      107.6       96.3       84.6       73.7       62.7       52.8       44.3       38.0
      35.9       35.0       34.2       33.3       32.7       31.9       31.8       40.2       40.7       41.2
      41.6       42.2       42.6       43.2       43.5       44.2       45.7       49.1       54.9       63.2
      72.6       82.7       92.8      103.1      112.3      120.9      126.8      128.9      126.9      121.4
     114.2      105.7       96.0       86.2       75.4       63.9       52.9       41.5       31.0       21.6
      14.6        9.3        8.0
