IESNA:LM-63-1995
[TEST]    20430A
[MANUFAC]COOPER LIGHTING - SHAPER                                 
[LUMCAT]635-LS-14-CFL/2/13                                                              
[LUMINAIRE]INTERIOR WALL MOUNT LUMINAIRE WITH WHITE INTERIOR AND WHITE PLASTIC LENS                                      
[LAMP]TWO 13 WATT CPFL LAMPS. LUMEN RATING = 1800 LMS.                                
[OTHER]SIMULATED REPORT FROM TEST WITH 2 - 26 WATT LAMPS                               
TILT=NONE
1
      1800
1
73
17
1
1
  0.21
  1.08
  0.75
1
1
    0.0000
0 2.5 5 7.5 10 12.5 15 17.5 20 22.5 25 27.5 30 32.5 35 37.5
40 42.5 45 47.5 50 52.5 55 57.5 60 62.5 65 67.5 70 72.5 75
77.5 80 82.5 85 87.5 90 92.5 95 97.5 100 102.5 105 107.5 110
112.5 115 117.5 120 122.5 125 127.5 130 132.5 135 137.5 140
142.5 145 147.5 150 152.5 155 157.5 160 162.5 165 167.5 170
172.5 175 177.5 180
0 22.5 45 67.5 90 112.5 135 157.5 180 202.5 225 247.5
270 292.5 315 337.5 360
      49.4       44.0       62.1       91.5      124.9      153.6      177.8      196.2      210.1      219.4
     225.1      228.4      229.2      229.8      229.3      228.7      228.1      227.9      227.6      227.3
     227.6      228.3      229.9      231.7      234.2      236.2      238.6      240.5      242.0      243.3
     244.4      245.3      246.4      247.1      247.4      247.5      247.0      245.2      244.8      243.3
     241.7      239.7      236.4      233.3      230.3      226.5      222.0      217.4      212.9      207.6
     202.7      196.8      191.7      186.3      181.6      176.7      171.7      167.2      162.6      158.3
     153.8      151.6      150.3      146.3      139.9      129.1      114.3       95.9       71.7       47.4
      27.2       11.7       14.2
      49.4       41.4       54.3       79.2      109.2      139.3      164.5      185.0      202.4      214.9
     222.7      227.3      228.7      228.2      226.4      224.2      221.8      219.4      217.6      215.9
     214.5      213.8      214.0      214.8      216.0      217.3      218.3      219.6      220.9      221.8
     222.4      222.9      223.3      223.5      223.7      223.9      223.2      224.6      223.9      222.8
     220.6      218.8      216.5      213.4      211.0      207.6      203.3      199.4      195.2      191.2
     186.1      181.6      177.0      172.4      168.4      164.7      160.5      157.6      154.2      152.0
     149.8      149.6      147.7      142.6      133.8      120.9      104.9       84.0       61.4       40.5
      23.4       10.3       14.2
      49.4       39.3       45.7       64.0       90.4      116.5      143.5      166.7      188.1      203.3
     213.9      219.8      221.7      220.5      217.4      212.2      206.1      199.3      193.6      188.5
     183.2      178.6      174.3      171.6      169.5      168.3      167.0      166.9      166.4      166.0
     165.6      164.7      164.2      164.0      164.0      163.7      163.1      167.7      167.1      166.2
     164.5      163.3      162.1      160.5      158.7      156.4      153.8      151.1      148.9      146.3
     143.8      140.7      138.4      136.2      135.2      134.6      134.3      135.7      137.9      140.5
     142.3      142.3      140.5      134.8      125.6      111.4       93.2       71.0       49.9       30.6
      17.7        9.2       14.2
      49.4       40.4       42.4       51.2       64.8       80.4       98.3      117.1      135.5      152.1
     166.7      179.7      187.4      192.3      194.3      192.4      188.1      181.5      173.1      163.9
     153.8      144.4      134.6      125.4      116.0      109.2      104.1      100.6       97.5       95.3
      93.3       91.6       90.5       89.3       88.4       87.9       87.3       92.0       92.2       92.0
      91.5       91.1       90.3       90.0       89.5       88.9       87.9       87.5       87.5       88.1
      89.4       91.0       94.2       98.8      103.5      108.8      115.2      119.2      121.0      120.8
     118.2      114.4      107.2       97.3       85.8       72.6       59.8       46.5       34.8       22.5
      13.9       10.8       14.2
      49.4       49.8       55.3       64.3       74.2       84.2       93.6      102.5      110.9      117.9
     124.3      129.9      134.4      137.9      138.9      139.0      136.3      131.6      126.0      119.3
     112.1      104.3       95.4       86.6       77.4       68.7       60.0       52.8       45.7       38.4
      34.0       32.3       30.9       29.4       28.2       27.3       27.0       32.3       33.0       33.5
      33.8       34.7       35.2       36.0       37.1       37.7       38.7       40.0       42.2       46.0
      50.3       56.4       62.0       68.7       73.7       78.2       81.9       84.7       86.5       85.1
      81.2       75.8       69.5       63.0       56.9       50.1       43.9       37.8       32.3       25.6
      19.5       15.9       14.2
      49.4       60.4       72.4       82.6       91.5       98.6      104.7      108.2      110.4      110.3
     108.9      106.5      103.0       99.5       95.3       89.7       84.2       78.3       71.6       64.6
      57.7       51.2       44.6       38.9       33.9       28.8       24.2       20.5       16.9       13.4
      10.9        8.4        6.7        4.8        3.7        2.5        2.7        5.5        6.4        7.5
       8.1        9.7       11.0       13.1       15.4       17.8       20.3       23.6       27.7       31.6
      35.5       40.2       44.3       49.1       52.6       56.4       60.1       63.4       65.9       68.4
      70.4       72.2       73.4       72.8       71.0       66.7       61.4       54.1       46.3       36.6
      29.1       22.2       14.2
      49.4       63.4       76.6       86.2       93.4       97.2       99.7      101.4      100.9       99.9
      96.7       92.7       87.2       81.5       75.3       68.9       62.9       56.5       50.8       45.2
      39.9       35.0       30.5       26.3       22.6       18.9       16.0       12.9       10.6        8.1
       6.1        4.3        2.7        1.1        0.0        0.0        0.0        1.4        2.1        2.8
       3.9        4.5        5.9        7.2        8.3       10.4       12.0       14.0       16.1       18.8
      22.3       25.3       29.3       33.0       37.4       41.8       46.0       50.5       54.9       58.5
      62.7       65.1       67.3       69.0       69.0       68.3       66.5       63.8       57.6       47.5
      37.9       25.5       14.2
      49.4       64.5       76.5       85.0       91.1       96.3       99.2       99.7       97.8       94.1
      88.7       83.2       76.8       71.2       65.5       59.1       53.7       48.1       42.9       38.1
      34.1       30.0       25.9       23.0       19.5       16.9       13.9       11.6        9.7        7.3
       5.9        3.8        2.5        0.9        0.0        0.0        0.0        0.0        1.1        1.5
       2.7        3.3        4.4        5.9        6.8        8.4        9.8       11.2       12.6       14.9
      16.7       19.5       22.0       25.0       28.5       32.0       35.5       40.0       44.3       48.2
      53.0       57.4       61.5       65.6       69.0       71.0       71.1       68.7       63.4       54.7
      42.0       26.6       14.2
      49.4       62.9       73.5       81.8       89.0       94.2       97.1       97.2       95.3       90.8
      85.6       79.4       73.8       68.1       62.3       56.5       51.0       45.3       40.7       36.3
      32.6       28.8       25.4       22.2       19.2       16.6       13.8       11.7        9.7        7.6
       5.9        3.8        2.8        1.0        0.1        0.0        0.0        0.0        0.4        1.5
       2.3        3.3        4.3        5.4        6.6        7.8        8.7       10.4       11.6       13.6
      15.6       17.7       20.2       23.2       25.9       29.1       32.7       36.3       40.2       44.4
      48.8       53.5       57.9       62.5       66.1       67.9       68.9       66.8       62.1       53.4
      41.8       27.0       14.2
      49.4       64.5       76.5       85.0       91.1       96.3       99.2       99.7       97.8       94.1
      88.7       83.2       76.8       71.2       65.5       59.1       53.7       48.1       42.9       38.1
      34.1       30.0       25.9       23.0       19.5       16.9       13.9       11.6        9.7        7.3
       5.9        3.8        2.5        0.9        0.0        0.0        0.0        0.0        1.1        1.5
       2.7        3.3        4.4        5.9        6.8        8.4        9.8       11.2       12.6       14.9
      16.7       19.5       22.0       25.0       28.5       32.0       35.5       40.0       44.3       48.2
      53.0       57.4       61.5       65.6       69.0       71.0       71.1       68.7       63.4       54.7
      42.0       26.6       14.2
      49.4       63.4       76.6       86.2       93.4       97.2       99.7      101.4      100.9       99.9
      96.7       92.7       87.2       81.5       75.3       68.9       62.9       56.5       50.8       45.2
      39.9       35.0       30.5       26.3       22.6       18.9       16.0       12.9       10.6        8.1
       6.1        4.3        2.7        1.1        0.0        0.0        0.0        1.4        2.1        2.8
       3.9        4.5        5.9        7.2        8.3       10.4       12.0       14.0       16.1       18.8
      22.3       25.3       29.3       33.0       37.4       41.8       46.0       50.5       54.9       58.5
      62.7       65.1       67.3       69.0       69.0       68.3       66.5       63.8       57.6       47.5
      37.9       25.5       14.2
      49.4       60.4       72.4       82.6       91.5       98.6      104.7      108.2      110.4      110.3
     108.9      106.5      103.0       99.5       95.3       89.7       84.2       78.3       71.6       64.6
      57.7       51.2       44.6       38.9       33.9       28.8       24.2       20.5       16.9       13.4
      10.9        8.4        6.7        4.8        3.7        2.5        2.7        5.5        6.4        7.5
       8.1        9.7       11.0       13.1       15.4       17.8       20.3       23.6       27.7       31.6
      35.5       40.2       44.3       49.1       52.6       56.4       60.1       63.4       65.9       68.4
      70.4       72.2       73.4       72.8       71.0       66.7       61.4       54.1       46.3       36.6
      29.1       22.2       14.2
      49.4       49.8       55.3       64.3       74.2       84.2       93.6      102.5      110.9      117.9
     124.3      129.9      134.4      137.9      138.9      139.0      136.3      131.6      126.0      119.3
     112.1      104.3       95.4       86.6       77.4       68.7       60.0       52.8       45.7       38.4
      34.0       32.3       30.9       29.4       28.2       27.3       27.0       32.3       33.0       33.5
      33.8       34.7       35.2       36.0       37.1       37.7       38.7       40.0       42.2       46.0
      50.3       56.4       62.0       68.7       73.7       78.2       81.9       84.7       86.5       85.1
      81.2       75.8       69.5       63.0       56.9       50.1       43.9       37.8       32.3       25.6
      19.5       15.9       14.2
      49.4       40.4       42.4       51.2       64.8       80.4       98.3      117.1      135.5      152.1
     166.7      179.7      187.4      192.3      194.3      192.4      188.1      181.5      173.1      163.9
     153.8      144.4      134.6      125.4      116.0      109.2      104.1      100.6       97.5       95.3
      93.3       91.6       90.5       89.3       88.4       87.9       87.3       92.0       92.2       92.0
      91.5       91.1       90.3       90.0       89.5       88.9       87.9       87.5       87.5       88.1
      89.4       91.0       94.2       98.8      103.5      108.8      115.2      119.2      121.0      120.8
     118.2      114.4      107.2       97.3       85.8       72.6       59.8       46.5       34.8       22.5
      13.9       10.8       14.2
      49.4       39.3       45.7       64.0       90.4      116.5      143.5      166.7      188.1      203.3
     213.9      219.8      221.7      220.5      217.4      212.2      206.1      199.3      193.6      188.5
     183.2      178.6      174.3      171.6      169.5      168.3      167.0      166.9      166.4      166.0
     165.6      164.7      164.2      164.0      164.0      163.7      163.1      167.7      167.1      166.2
     164.5      163.3      162.1      160.5      158.7      156.4      153.8      151.1      148.9      146.3
     143.8      140.7      138.4      136.2      135.2      134.6      134.3      135.7      137.9      140.5
     142.3      142.3      140.5      134.8      125.6      111.4       93.2       71.0       49.9       30.6
      17.7        9.2       14.2
      49.4       41.4       54.3       79.2      109.2      139.3      164.5      185.0      202.4      214.9
     222.7      227.3      228.7      228.2      226.4      224.2      221.8      219.4      217.6      215.9
     214.5      213.8      214.0      214.8      216.0      217.3      218.3      219.6      220.9      221.8
     222.4      222.9      223.3      223.5      223.7      223.9      223.2      224.6      223.9      222.8
     220.6      218.8      216.5      213.4      211.0      207.6      203.3      199.4      195.2      191.2
     186.1      181.6      177.0      172.4      168.4      164.7      160.5      157.6      154.2      152.0
     149.8      149.6      147.7      142.6      133.8      120.9      104.9       84.0       61.4       40.5
      23.4       10.3       14.2
      49.4       44.0       62.1       91.5      124.9      153.6      177.8      196.2      210.1      219.4
     225.1      228.4      229.2      229.8      229.3      228.7      228.1      227.9      227.6      227.3
     227.6      228.3      229.9      231.7      234.2      236.2      238.6      240.5      242.0      243.3
     244.4      245.3      246.4      247.1      247.4      247.5      247.0      245.2      244.8      243.3
     241.7      239.7      236.4      233.3      230.3      226.5      222.0      217.4      212.9      207.6
     202.7      196.8      191.7      186.3      181.6      176.7      171.7      167.2      162.6      158.3
     153.8      151.6      150.3      146.3      139.9      129.1      114.3       95.9       71.7       47.4
      27.2       11.7       14.2
