IESNA:LM-63-2002
[TEST]P13577
[TESTLAB]PEACHTREE CITY
[ISSUEDATE]01/16/13
[MANUFAC]COOPER LIGHTING - PORTFOLIO
[LUMCAT]CLWW6132E-6CLWW1LI
[LUMINAIRE]PORTFOLIO 6 INCH CFL VERTICAL RECESSED WALL WASH DOWNLIGHT
[MORE]FIXTURE WITH SELF FLANGED SPECULAR CLEAR TRIM WITH A FRESNAL
[MORE]GLASS LENS
[LAMPCAT]CF32DT/E/827
[LAMP][1] SYLVANIA 32W TTT 2700K
[BALLASTCAT]QTP 2X26CF/UNV DM
[BALLAST][1] SYLVANIA ELECTRONIC BALLAST
[OTHER]AMBIENT TEMP: 25.0C; INPUT VOLTS: 120.01; WATTS: 30.193;
[MORE]AMPS: .25192; POWER FACTOR: .99868; HOURS OPERATED PRIOR TO
[MORE]TESTING: 2; STABILITY: 30 MIN; TOTAL OP TIME: 3 HRS
[_MOUNTING]RECESSED
[_RELATIVE]THIS PHOTOMETRIC TEST WAS PERFORMED USING A SPECIFIC
[MORE]BALLAST/LAMP COMBINATION IN GONIOPHOTOMETER WITH TEST
[MORE]DISTANCE OF 25.0 FEET. EXTRAPOLATION OF THESE DATA FOR OTHER
[MORE]BALLAST/LAMP COMBINATIONS MAY PRODUCE ERRONEOUS RESULTS
[_BALLAST FACTOR]NOTE: BALLAST(S) FACTOR SHOULD BE APPLIED TO TEST DATA FOR
[MORE]ALL CALCULATIONS
TILT=NONE
1 2400 1 37 23 1 1 -0.5 -0.5 0
1 1 30.2
0 2.5 5 7.5 10 12.5 15 17.5 20 22.5
25 27.5 30 32.5 35 37.5 40 42.5 45 47.5
50 52.5 55 57.5 60 62.5 65 67.5 70 72.5
75 77.5 80 82.5 85 87.5 90
0 5 10 15 20 25 30 35 40 45
50 55 60 65 70 75 80 85 90 112.5
135 157.5 180
440 451 460 468 475 481 485 488 488 486
481 474 464 450 433 410 383 353 320 285
250 216 183 153 125 99 75 57 41 29
19 13 9 7 4 1 0
440 451 460 468 475 481 485 488 489 486
482 475 464 451 433 411 384 354 321 286
251 217 184 154 126 100 76 57 41 29
19 13 9 7 4 1 0
440 447 456 464 471 476 481 484 484 482
478 470 460 446 429 407 380 350 318 283
249 215 183 152 124 99 76 56 41 28
19 13 9 6 4 1 0
440 446 455 463 470 476 480 483 483 481
476 469 458 445 428 406 380 350 317 283
249 215 183 153 125 99 76 56 40 28
19 12 9 6 4 1 0
440 448 457 465 472 478 482 485 486 483
478 470 460 446 429 407 381 351 319 285
250 217 184 154 125 99 76 56 40 28
18 12 9 6 4 1 0
440 445 454 462 469 475 480 483 483 481
476 467 456 442 425 404 378 348 315 282
247 214 182 152 123 97 74 54 39 26
17 11 8 6 3 1 0
440 446 454 462 469 475 479 482 482 479
474 465 454 440 422 400 374 344 312 278
244 211 179 149 121 95 72 52 36 25
16 11 8 6 3 1 0
440 445 453 461 468 474 478 480 480 477
471 463 451 436 419 396 370 339 306 272
238 206 175 145 117 91 69 49 34 23
15 10 8 6 3 1 0
440 446 453 461 468 473 477 479 479 476
469 460 448 432 414 391 363 331 298 264
230 198 167 138 111 86 65 46 31 21
14 10 7 5 2 1 0
440 446 453 460 466 472 475 476 475 471
464 454 441 425 406 381 352 320 286 252
220 188 158 130 104 81 61 43 29 19
12 9 7 5 2 0 0
440 445 451 458 465 469 472 473 471 466
458 447 433 416 396 371 341 307 273 239
207 177 148 122 98 75 56 40 26 17
11 8 6 4 2 0 0
440 450 456 462 468 473 476 476 474 468
459 447 433 415 394 367 336 301 265 231
200 170 142 116 93 72 54 38 25 16
10 8 6 4 1 0 0
440 444 450 456 461 465 468 467 464 456
446 434 419 401 380 353 321 286 251 217
186 158 131 107 85 66 50 35 23 14
9 7 5 3 1 0 0
440 443 448 453 458 461 463 461 457 449
438 424 409 390 369 342 310 274 238 205
175 147 122 99 79 62 46 32 21 12
8 6 5 3 1 0 0
440 445 448 453 457 460 460 458 452 443
431 417 401 382 359 331 299 263 227 194
165 137 113 92 74 57 43 29 18 11
7 6 4 2 1 0 0
440 447 450 454 457 459 459 456 449 439
426 412 395 376 353 324 291 255 219 186
156 130 106 86 69 54 40 27 17 10
6 5 3 2 0 0 0
440 444 447 450 453 454 453 449 442 430
417 402 385 366 342 313 280 244 209 176
146 120 99 80 64 50 36 24 15 8
5 4 3 1 0 0 0
440 434 435 437 439 439 437 432 423 412
397 382 365 347 324 296 263 228 194 163
134 109 89 72 58 45 32 21 13 7
4 3 2 1 0 0 0
440 439 439 440 440 439 435 429 419 406
391 375 358 339 316 287 254 220 187 155
127 103 83 67 54 41 29 19 11 6
4 3 1 0 0 0 0
440 440 437 434 430 424 415 403 387 369
351 332 313 292 268 240 210 180 150 122
97 77 62 51 40 29 19 11 5 2
1 0 0 0 0 0 0
440 437 430 423 416 405 390 372 351 328
307 286 266 245 222 196 167 140 115 94
75 60 48 37 26 17 10 3 1 0
0 0 0 0 0 0 0
440 432 423 414 404 390 371 349 325 301
280 260 241 223 202 177 149 122 97 77
60 47 35 25 17 10 4 1 0 0
0 0 0 0 0 0 0
440 433 423 414 404 389 369 345 320 296
273 254 236 218 198 174 146 117 91 71
55 42 32 23 15 8 2 0 0 0
0 0 0 0 0 0 0
