IESNA:LM-63-2002
[TEST]P13582
[TESTLAB]PEACHTREE CITY
[ISSUEDATE]01/18/13
[MANUFAC]COOPER LIGHTING - PORTFOLIO
[LUMCAT]CLWW6132E-6CLWW1LI
[LUMINAIRE]PORTFOLIO 6 INCH CFL VERTICAL RECESSED WALL WASH DOWNLIGHT
[MORE]WITH SPECULAR CLEAR REFLECTOR AND FRESNAL GLASS LENS
[LAMPCAT]CF26DT/E/835/ECO
[LAMP][1] SYLVANIA 26W TTT 3500K
[BALLASTCAT]QTP 2X26CF/UNV DM
[BALLAST][1] SYLVANIA ELECTRONIC BALLAST
[OTHER]AMBIENT TEMP: 24.7C; INPUT VOLTS: 120.04; WATTS: 26.456;
[MORE]AMPS: .0.22074; POWER FACTOR: .99841; HOURS OPERATED PRIOR TO
[MORE]TESTING: 4; STABILITY: 60 MIN; TOTAL OP TIME: 5 HRS
[_MOUNTING]HORIZONTAL
[_RELATIVE]THIS PHOTOMETRIC TEST WAS PERFORMED USING A SPECIFIC
[MORE]BALLAST/LAMP COMBINATION IN GONIOPHOTOMETER WITH TEST
[MORE]DISTANCE OF 25.0 FEET. EXTRAPOLATION OF THESE DATA FOR OTHER
[MORE]BALLAST/LAMP COMBINATIONS MAY PRODUCE ERRONEOUS RESULTS
[_BALLAST FACTOR]NOTE: BALLAST(S) FACTOR SHOULD BE APPLIED TO TEST DATA FOR
[MORE]ALL CALCULATIONS
TILT=NONE
1 1800 1 37 23 1 1 -0.541667 -0.541667 0
1 1 26.5
0 2.5 5 7.5 10 12.5 15 17.5 20 22.5
25 27.5 30 32.5 35 37.5 40 42.5 45 47.5
50 52.5 55 57.5 60 62.5 65 67.5 70 72.5
75 77.5 80 82.5 85 87.5 90
0 5 10 15 20 25 30 35 40 45
50 55 60 65 70 75 80 85 90 112.5
135 157.5 180
410 416 424 432 438 442 445 446 443 438
430 418 403 384 360 334 303 272 241 210
181 155 131 110 91 71 54 39 27 18
13 9 7 5 2 0 0
410 415 424 431 437 441 444 445 443 437
429 418 402 383 360 334 304 272 241 210
181 155 131 110 90 71 55 38 27 18
13 9 7 5 2 1 0
410 415 424 431 437 441 444 445 443 437
429 417 402 384 360 334 305 273 241 210
181 156 131 110 90 71 54 38 27 18
13 9 7 5 2 0 0
410 415 424 431 437 441 444 445 442 436
428 417 402 384 360 334 305 274 242 211
181 155 131 109 89 71 53 38 26 18
13 9 7 5 2 0 0
410 415 423 430 436 441 443 444 441 435
427 415 401 382 360 334 306 272 241 210
181 154 129 108 89 69 53 37 26 17
12 8 7 5 2 0 0
410 416 423 430 436 440 443 443 440 434
425 414 399 381 359 334 304 273 241 210
180 152 128 106 87 68 52 36 25 17
12 8 6 4 2 0 0
410 415 423 430 435 439 441 442 438 432
423 412 397 379 357 331 303 271 239 207
177 151 126 104 85 66 51 35 24 16
11 8 6 4 2 0 0
410 415 422 428 434 438 440 439 436 430
420 409 394 376 354 328 299 267 235 204
174 147 123 101 82 65 49 34 23 16
11 8 6 4 1 0 0
410 415 422 428 433 436 438 437 433 426
417 405 390 372 350 324 295 264 231 199
170 143 119 98 80 63 48 33 22 15
10 7 6 4 1 0 0
410 414 421 427 431 435 436 434 430 423
413 400 385 367 344 319 290 258 225 194
165 139 115 94 77 60 46 32 21 14
10 7 5 3 1 0 0
410 414 420 426 430 432 433 431 426 418
407 395 379 361 338 313 283 251 218 187
159 133 111 90 74 57 44 30 20 13
9 6 5 3 1 0 0
410 414 419 424 428 430 430 427 422 413
401 388 372 354 331 305 275 243 210 180
152 127 105 86 70 55 42 28 19 12
8 6 5 3 1 0 0
410 413 418 423 426 427 427 423 417 407
395 381 365 346 323 297 267 234 202 172
145 121 100 82 67 52 39 27 18 11
8 6 4 2 0 0 0
410 413 417 421 424 425 424 419 412 401
388 373 357 338 315 289 259 226 194 164
138 115 95 77 63 50 37 25 16 10
7 5 4 2 0 0 0
410 413 417 420 422 423 420 415 406 394
381 366 350 331 307 281 251 219 186 157
131 109 90 73 60 47 35 23 14 9
6 5 3 1 1 0 0
410 412 415 418 419 419 417 411 401 388
373 357 341 322 299 274 244 211 179 149
124 103 85 69 57 45 33 21 13 8
6 4 3 1 0 0 0
410 412 415 416 417 416 413 406 395 382
366 350 334 315 292 266 236 204 173 143
118 97 80 66 54 42 30 19 12 7
5 3 2 1 0 0 0
410 412 413 415 415 413 408 400 389 374
359 342 326 307 284 258 229 197 166 137
113 93 76 62 51 39 28 17 11 6
4 3 2 1 0 0 0
410 412 412 412 412 409 404 395 383 368
351 335 318 299 276 250 221 190 159 132
107 87 71 58 47 36 25 16 10 5
4 2 1 1 0 0 0
410 410 407 404 399 393 383 370 353 334
315 297 279 260 237 213 186 158 130 105
84 67 53 43 34 25 17 9 5 2
2 1 0 0 0 0 0
410 408 402 396 389 379 364 346 324 301
279 258 239 219 198 175 151 126 103 83
66 53 42 33 24 16 10 4 1 1
1 0 0 0 0 0 0
410 407 400 392 383 370 352 330 305 279
256 235 216 198 178 157 134 110 89 70
56 44 33 24 17 11 6 1 1 1
1 0 0 0 0 0 0
410 407 399 391 382 368 349 326 300 272
248 227 210 192 173 153 131 107 84 67
51 40 29 21 15 9 4 0 1 1
1 0 0 0 0 0 0
