IESNA:LM-63-1995
[TEST]    19149A
[MANUFAC]COOPER LIGHTING - SHAPER                                
[LUMCAT]612-A-CF2/26                                                                    
[LUMINAIRE]INTERIOR WALL MOUNT LUMINAIRE WITH WHITE INTERIOR AND WHITE PLASTIC LENS                                      
[LAMP]TWO 26 WATT CPFL LAMPS. LUMEN RATING = 3600 LMS.                                
[OTHER]SIMULATED REPORT FROM TEST WITH 2 - 13 WATT LAMPS                               
TILT=NONE
1
      3600
1
73
17
1
1
 -0.58
  0.00
  0.29
1
1
    0.0000
0 2.5 5 7.5 10 12.5 15 17.5 20 22.5 25 27.5 30 32.5 35 37.5
40 42.5 45 47.5 50 52.5 55 57.5 60 62.5 65 67.5 70 72.5 75
77.5 80 82.5 85 87.5 90 92.5 95 97.5 100 102.5 105 107.5 110
112.5 115 117.5 120 122.5 125 127.5 130 132.5 135 137.5 140
142.5 145 147.5 150 152.5 155 157.5 160 162.5 165 167.5 170
172.5 175 177.5 180
0 22.5 45 67.5 90 112.5 135 157.5 180 202.5 225 247.5
270 292.5 315 337.5 360
     264.4      265.6      263.3      261.5      261.3      259.1      255.8      252.3      247.5      243.3
     239.1      232.5      225.0      219.0      214.7      208.9      202.7      193.9      188.4      182.6
     176.0      170.2      165.4      160.1      154.4      149.7      142.2      136.8      131.4      124.9
     116.8      110.3      105.1       97.2       89.4       84.0       76.9       38.5       42.3       49.5
      70.7       98.3      150.4      210.0      250.1      282.3      313.8      345.7      375.1      409.8
     444.2      482.5      522.1      559.9      597.2      631.0      663.8      690.8      715.5      735.7
     752.5      764.9      779.6      796.0      810.3      823.0      836.1      847.4      847.9      838.2
     826.9      812.8      808.7
     264.4      263.7      262.3      263.7      263.3      260.4      260.0      256.8      250.6      248.7
     245.0      241.8      234.3      231.0      223.9      217.3      211.2      204.7      199.1      192.4
     187.7      182.2      175.4      168.9      161.4      156.8      152.6      146.0      139.5      132.4
     124.9      120.1      112.2      103.7       99.1       90.7       81.2       38.6       44.1       50.7
      71.8      108.9      154.5      197.2      239.5      278.3      313.5      350.2      384.8      420.9
     458.6      496.5      532.2      571.3      607.4      636.8      663.7      690.8      712.0      734.1
     753.7      772.9      789.5      805.4      818.5      829.2      838.7      842.9      842.5      836.7
     826.0      814.8      808.7
     264.4      263.7      264.6      266.2      266.6      265.6      265.2      260.4      260.4      258.1
     256.8      249.6      248.3      241.2      237.5      231.8      219.7      220.0      213.5      207.9
     201.8      194.9      188.7      181.2      171.4      164.7      161.0      151.2      146.4      139.5
     132.8      122.6      116.8      108.0      100.5       93.0       86.8       36.1       38.0       45.1
      65.7      107.0      158.7      200.8      243.1      289.1      333.7      375.0      411.1      445.9
     479.2      515.3      552.0      588.6      619.1      645.3      668.3      690.8      712.0      736.0
     755.6      771.6      786.2      797.0      810.0      820.8      828.3      832.1      830.2      827.9
     819.1      812.9      808.7
     264.4      266.6      267.5      268.5      267.9      269.4      264.6      267.9      267.5      263.7
     262.3      258.7      254.8      251.2      247.0      240.2      234.6      230.0      223.5      216.4
     207.9      202.7      195.2      186.8      179.3      172.2      163.3      157.2      147.0      139.5
     130.5      123.0      115.1      106.6       99.5       90.7       81.2       31.8       32.8       43.2
      71.8      113.2      160.1      206.6      251.2      291.6      333.3      373.6      411.7      445.9
     478.2      509.2      540.7      570.3      598.9      624.7      649.1      672.0      693.1      715.2
     732.5      750.4      764.5      778.7      789.5      797.9      807.7      813.3      814.3      809.6
     810.6      808.3      808.7
     264.4      268.5      270.8      273.1      274.1      275.0      276.0      273.7      272.1      270.8
     267.5      264.3      262.9      256.2      254.4      249.3      243.1      237.5      228.1      224.8
     216.4      208.9      199.1      192.4      183.5      174.1      167.9      159.5      149.3      141.8
     133.3      123.9      114.1      105.7       97.2       88.7       80.3       28.6       31.5       37.0
      56.8       85.9      121.6      161.4      202.4      242.7      285.4      321.0      355.4      394.2
     430.0      465.5      500.7      532.6      565.1      592.8      618.6      642.6      664.5      686.6
     702.6      720.4      736.4      752.4      763.1      775.8      785.6      795.0      798.9      805.4
     807.7      808.7      808.7
     264.4      266.6      267.5      268.5      267.9      269.4      264.6      267.9      267.5      263.7
     262.3      258.7      254.8      251.2      247.0      240.2      234.6      230.0      223.5      216.4
     207.9      202.7      195.2      186.8      179.3      172.2      163.3      157.2      147.0      139.5
     130.5      123.0      115.1      106.6       99.5       90.7       81.2       31.8       32.8       43.2
      71.8      113.2      160.1      206.6      251.2      291.6      333.3      373.6      411.7      445.9
     478.2      509.2      540.7      570.3      598.9      624.7      649.1      672.0      693.1      715.2
     732.5      750.4      764.5      778.7      789.5      797.9      807.7      813.3      814.3      809.6
     810.6      808.3      808.7
     264.4      263.7      264.6      266.2      266.6      265.6      265.2      260.4      260.4      258.1
     256.8      249.6      248.3      241.2      237.5      231.8      219.7      220.0      213.5      207.9
     201.8      194.9      188.7      181.2      171.4      164.7      161.0      151.2      146.4      139.5
     132.8      122.6      116.8      108.0      100.5       93.0       86.8       36.1       38.0       45.1
      65.7      107.0      158.7      200.8      243.1      289.1      333.7      375.0      411.1      445.9
     479.2      515.3      552.0      588.6      619.1      645.3      668.3      690.8      712.0      736.0
     755.6      771.6      786.2      797.0      810.0      820.8      828.3      832.1      830.2      827.9
     819.1      812.9      808.7
     264.4      263.7      262.3      263.7      263.3      260.4      260.0      256.8      250.6      248.7
     245.0      241.8      234.3      231.0      223.9      217.3      211.2      204.7      199.1      192.4
     187.7      182.2      175.4      168.9      161.4      156.8      152.6      146.0      139.5      132.4
     124.9      120.1      112.2      103.7       99.1       90.7       81.2       38.6       44.1       50.7
      71.8      108.9      154.5      197.2      239.5      278.3      313.5      350.2      384.8      420.9
     458.6      496.5      532.2      571.3      607.4      636.8      663.7      690.8      712.0      734.1
     753.7      772.9      789.5      805.4      818.5      829.2      838.7      842.9      842.5      836.7
     826.0      814.8      808.7
     264.4      265.6      263.3      261.5      261.3      259.1      255.8      252.3      247.5      243.3
     239.1      232.5      225.0      219.0      214.7      208.9      202.7      193.9      188.4      182.6
     176.0      170.2      165.4      160.1      154.4      149.7      142.2      136.8      131.4      124.9
     116.8      110.3      105.1       97.2       89.4       84.0       76.9       38.5       42.3       49.5
      70.7       98.3      150.4      210.0      250.1      282.3      313.8      345.7      375.1      409.8
     444.2      482.5      522.1      559.9      597.2      631.0      663.8      690.8      715.5      735.7
     752.5      764.9      779.6      796.0      810.3      823.0      836.1      847.4      847.9      838.2
     826.9      812.8      808.7
     264.4      263.7      262.3      260.4      258.1      254.8      252.5      246.0      241.8      236.6
     232.7      222.9      218.7      212.5      206.0      199.9      193.3      183.1      175.1      170.8
     163.7      157.8      152.6      148.3      140.8      137.6      130.5      125.3      121.6      112.6
     107.4      101.4       94.3       88.7       81.6       75.1       71.4       34.3       37.6       42.2
      65.3       87.4      139.9      205.6      235.6      272.7      301.4      333.3      370.8      409.8
     447.3      485.3      523.8      560.3      595.7      625.1      652.4      676.8      697.4      717.6
     734.1      752.4      771.6      784.6      797.0      811.0      827.5      841.5      844.8      836.0
     821.4      812.9      808.7
     264.4      260.4      257.7      253.5      249.6      245.4      241.8      235.6      229.1      222.9
     216.4      210.8      203.3      196.2      188.7      181.2      172.7      163.7      156.2      148.3
     141.8      134.7      128.5      123.0      116.8      113.5      108.0      103.7       99.9       90.7
      86.8       81.6       76.1       71.8       65.7       60.1       59.1       28.6       31.8       39.3
      59.5       93.0      150.6      185.8      216.4      247.0      285.4      327.7      364.2      401.3
     435.5      474.0      508.8      541.1      571.3      597.4      623.4      650.1      676.8      699.9
     721.8      738.7      751.0      767.9      782.9      802.5      820.0      831.2      831.7      823.7
     818.5      812.3      808.7
     264.4      258.7      254.4      250.6      246.0      241.8      234.6      230.0      222.5      214.1
     208.9      199.5      192.4      182.6      174.1      167.2      159.1      147.0      138.0      130.1
     122.6      114.1      104.7       97.6       89.1       83.2       76.4       71.8       68.0       63.0
      60.1       55.3       51.6       47.0       42.8       42.8       43.2       25.3       29.1       39.9
      64.7      102.8      135.6      167.2      197.2      236.6      274.6      312.1      345.0      378.8
     411.1      443.0      474.6      506.5      536.5      567.0      597.0      624.7      650.1      673.5
     698.3      718.1      740.2      759.5      777.7      793.1      805.8      811.6      811.9      813.3
     812.3      809.6      808.7
     264.4      258.1      254.8      250.6      245.0      239.8      234.3      227.2      220.6      211.6
     203.7      196.2      183.9      178.9      168.9      158.1      149.7      139.9      131.4      121.0
     113.2      102.8       96.6       89.1       79.7       73.2       66.2       63.0       56.2       50.7
      47.0       42.2       38.6       34.7       32.4       30.1       34.7       21.1       26.8       31.5
      43.2       65.3       91.0      118.7      153.5      186.8      221.6      257.7      294.2      331.7
     369.4      407.9      444.0      480.5      512.4      544.0      578.8      607.8      636.4      661.8
     686.6      710.6      731.8      749.5      764.5      780.0      791.8      799.3      802.1      806.8
     806.8      810.0      808.7
     264.4      258.7      254.4      250.6      246.0      241.8      234.6      230.0      222.5      214.1
     208.9      199.5      192.4      182.6      174.1      167.2      159.1      147.0      138.0      130.1
     122.6      114.1      104.7       97.6       89.1       83.2       76.4       71.8       68.0       63.0
      60.1       55.3       51.6       47.0       42.8       42.8       43.2       25.3       29.1       39.9
      64.7      102.8      135.6      167.2      197.2      236.6      274.6      312.1      345.0      378.8
     411.1      443.0      474.6      506.5      536.5      567.0      597.0      624.7      650.1      673.5
     698.3      718.1      740.2      759.5      777.7      793.1      805.8      811.6      811.9      813.3
     812.3      809.6      808.7
     264.4      260.4      257.7      253.5      249.6      245.4      241.8      235.6      229.1      222.9
     216.4      210.8      203.3      196.2      188.7      181.2      172.7      163.7      156.2      148.3
     141.8      134.7      128.5      123.0      116.8      113.5      108.0      103.7       99.9       90.7
      86.8       81.6       76.1       71.8       65.7       60.1       59.1       28.6       31.8       39.3
      59.5       93.0      150.6      185.8      216.4      247.0      285.4      327.7      364.2      401.3
     435.5      474.0      508.8      541.1      571.3      597.4      623.4      650.1      676.8      699.9
     721.8      738.7      751.0      767.9      782.9      802.5      820.0      831.2      831.7      823.7
     818.5      812.3      808.7
     264.4      263.7      262.3      260.4      258.1      254.8      252.5      246.0      241.8      236.6
     232.7      222.9      218.7      212.5      206.0      199.9      193.3      183.1      175.1      170.8
     163.7      157.8      152.6      148.3      140.8      137.6      130.5      125.3      121.6      112.6
     107.4      101.4       94.3       88.7       81.6       75.1       71.4       34.3       37.6       42.2
      65.3       87.4      139.9      205.6      235.6      272.7      301.4      333.3      370.8      409.8
     447.3      485.3      523.8      560.3      595.7      625.1      652.4      676.8      697.4      717.6
     734.1      752.4      771.6      784.6      797.0      811.0      827.5      841.5      844.8      836.0
     821.4      812.9      808.7
     264.4      265.6      263.3      261.5      261.3      259.1      255.8      252.3      247.5      243.3
     239.1      232.5      225.0      219.0      214.7      208.9      202.7      193.9      188.4      182.6
     176.0      170.2      165.4      160.1      154.4      149.7      142.2      136.8      131.4      124.9
     116.8      110.3      105.1       97.2       89.4       84.0       76.9       38.5       42.3       49.5
      70.7       98.3      150.4      210.0      250.1      282.3      313.8      345.7      375.1      409.8
     444.2      482.5      522.1      559.9      597.2      631.0      663.8      690.8      715.5      735.7
     752.5      764.9      779.6      796.0      810.3      823.0      836.1      847.4      847.9      838.2
     826.9      812.8      808.7
