IESNA:LM-63-1995
[TEST]     19149
[MANUFAC]COOPER LIGHTING - SHAPER                               
[LUMCAT]612-A-CF2/13                                                                    
[LUMINAIRE]INTERIOR WALL MOUNT LUMINAIRE WITH WHITE INTERIOR AND WHITE PLASTIC LENS                                      
[LAMP]TWO 13 WATT CPFL LAMPS                                                          
[LAMPCAT]CF13DS/E/830. LUMEN RATING = 1600 LMS.                                          
[OTHER]ONE UNIVERSAL C2642UNVSE BALLAST OPERATING AT 120 VAC AND 28 WATTS              
TILT=NONE
1
      1600
1
73
17
1
1
 -0.58
  0.00
  0.29
1
1
   28.0000
0 2.5 5 7.5 10 12.5 15 17.5 20 22.5 25 27.5 30 32.5 35 37.5
40 42.5 45 47.5 50 52.5 55 57.5 60 62.5 65 67.5 70 72.5 75
77.5 80 82.5 85 87.5 90 92.5 95 97.5 100 102.5 105 107.5 110
112.5 115 117.5 120 122.5 125 127.5 130 132.5 135 137.5 140
142.5 145 147.5 150 152.5 155 157.5 160 162.5 165 167.5 170
172.5 175 177.5 180
0 22.5 45 67.5 90 112.5 135 157.5 180 202.5 225 247.5
270 292.5 315 337.5 360
     117.8      118.3      117.3      116.5      116.4      115.4      114.0      112.4      110.3      108.4
     106.5      103.6      100.3       97.6       95.7       93.1       90.4       86.5       84.0       81.4
      78.5       75.9       73.8       71.4       68.9       66.8       63.5       61.1       58.7       55.8
      52.2       49.3       47.0       43.5       40.0       37.6       34.5       17.4       19.1       22.3
      31.7       43.9       67.1       93.6      111.4      125.8      139.7      153.9      167.0      182.4
     197.7      214.7      232.3      249.1      265.7      280.7      295.3      307.3      318.3      327.3
     334.7      340.3      346.7      354.1      360.4      366.1      371.9      376.9      377.1      372.8
     367.8      361.5      359.7
     117.8      117.5      116.9      117.5      117.3      116.0      115.8      114.4      111.7      110.8
     109.2      107.7      104.4      102.9       99.8       96.9       94.1       91.2       88.8       85.8
      83.7       81.2       78.3       75.3       72.0       70.0       68.1       65.2       62.3       59.1
      55.8       53.6       50.1       46.4       44.3       40.6       36.4       17.4       19.9       22.8
      32.2       48.7       68.9       87.9      106.7      124.0      139.6      155.9      171.3      187.4
     204.1      220.9      236.8      254.2      270.2      283.3      295.3      307.3      316.7      326.5
     335.3      343.8      351.1      358.2      364.0      368.8      373.0      374.9      374.7      372.2
     367.4      362.4      359.7
     117.8      117.5      117.9      118.6      118.7      118.3      118.2      116.0      116.0      115.0
     114.4      111.2      110.6      107.5      105.8      103.3       97.9       98.1       95.2       92.7
      90.0       86.9       84.1       80.8       76.5       73.5       71.8       67.5       65.3       62.3
      59.3       54.8       52.2       48.3       44.9       41.6       38.9       16.3       17.2       20.3
      29.5       47.8       70.8       89.5      108.3      128.7      148.6      166.9      183.0      198.5
     213.2      229.3      245.6      261.9      275.4      287.1      297.3      307.3      316.7      327.4
     336.1      343.2      349.7      354.5      360.3      365.1      368.4      370.1      369.3      368.2
     364.3      361.6      359.7
     117.8      118.7      119.2      119.6      119.3      120.0      117.9      119.3      119.2      117.5
     116.9      115.2      113.5      111.9      110.0      107.0      104.6      102.5       99.6       96.4
      92.7       90.4       87.1       83.3       80.0       76.8       72.9       70.1       65.6       62.3
      58.3       54.9       51.4       47.7       44.5       40.6       36.4       14.4       14.9       19.5
      32.2       50.6       71.4       92.1      111.9      129.9      148.4      166.3      183.3      198.5
     212.8      226.6      240.6      253.7      266.5      277.9      288.8      298.9      308.3      318.2
     325.9      333.8      340.0      346.4      351.1      354.9      359.3      361.7      362.2      360.1
     360.5      359.5      359.7
     117.8      119.6      120.6      121.7      122.1      122.5      122.9      121.9      121.2      120.6
     119.2      117.7      117.1      114.1      113.4      111.1      108.3      105.8      101.7      100.2
      96.4       93.1       88.8       85.8       81.8       77.7       74.9       71.2       66.6       63.3
      59.5       55.4       51.0       47.2       43.5       39.7       36.0       13.0       14.3       16.7
      25.5       38.4       54.3       72.0       90.2      108.2      127.1      142.9      158.2      175.5
     191.4      207.2      222.8      237.0      251.4      263.7      275.2      285.9      295.6      305.4
     312.5      320.5      327.6      334.7      339.4      345.1      349.4      353.6      355.3      358.2
     359.3      359.7      359.7
     117.8      118.7      119.2      119.6      119.3      120.0      117.9      119.3      119.2      117.5
     116.9      115.2      113.5      111.9      110.0      107.0      104.6      102.5       99.6       96.4
      92.7       90.4       87.1       83.3       80.0       76.8       72.9       70.1       65.6       62.3
      58.3       54.9       51.4       47.7       44.5       40.6       36.4       14.4       14.9       19.5
      32.2       50.6       71.4       92.1      111.9      129.9      148.4      166.3      183.3      198.5
     212.8      226.6      240.6      253.7      266.5      277.9      288.8      298.9      308.3      318.2
     325.9      333.8      340.0      346.4      351.1      354.9      359.3      361.7      362.2      360.1
     360.5      359.5      359.7
     117.8      117.5      117.9      118.6      118.7      118.3      118.2      116.0      116.0      115.0
     114.4      111.2      110.6      107.5      105.8      103.3       97.9       98.1       95.2       92.7
      90.0       86.9       84.1       80.8       76.5       73.5       71.8       67.5       65.3       62.3
      59.3       54.8       52.2       48.3       44.9       41.6       38.9       16.3       17.2       20.3
      29.5       47.8       70.8       89.5      108.3      128.7      148.6      166.9      183.0      198.5
     213.2      229.3      245.6      261.9      275.4      287.1      297.3      307.3      316.7      327.4
     336.1      343.2      349.7      354.5      360.3      365.1      368.4      370.1      369.3      368.2
     364.3      361.6      359.7
     117.8      117.5      116.9      117.5      117.3      116.0      115.8      114.4      111.7      110.8
     109.2      107.7      104.4      102.9       99.8       96.9       94.1       91.2       88.8       85.8
      83.7       81.2       78.3       75.3       72.0       70.0       68.1       65.2       62.3       59.1
      55.8       53.6       50.1       46.4       44.3       40.6       36.4       17.4       19.9       22.8
      32.2       48.7       68.9       87.9      106.7      124.0      139.6      155.9      171.3      187.4
     204.1      220.9      236.8      254.2      270.2      283.3      295.3      307.3      316.7      326.5
     335.3      343.8      351.1      358.2      364.0      368.8      373.0      374.9      374.7      372.2
     367.4      362.4      359.7
     117.8      118.3      117.3      116.5      116.4      115.4      114.0      112.4      110.3      108.4
     106.5      103.6      100.3       97.6       95.7       93.1       90.4       86.5       84.0       81.4
      78.5       75.9       73.8       71.4       68.9       66.8       63.5       61.1       58.7       55.8
      52.2       49.3       47.0       43.5       40.0       37.6       34.5       17.4       19.1       22.3
      31.7       43.9       67.1       93.6      111.4      125.8      139.7      153.9      167.0      182.4
     197.7      214.7      232.3      249.1      265.7      280.7      295.3      307.3      318.3      327.3
     334.7      340.3      346.7      354.1      360.4      366.1      371.9      376.9      377.1      372.8
     367.8      361.5      359.7
     117.8      117.5      116.9      116.0      115.0      113.5      112.5      109.6      107.7      105.4
     103.7       99.4       97.5       94.7       91.8       89.1       86.2       81.7       78.1       76.2
      73.0       70.4       68.1       66.2       62.9       61.4       58.3       56.0       54.3       50.3
      48.0       45.4       42.2       39.7       36.6       33.7       32.0       15.5       17.0       19.0
      29.3       39.1       62.4       91.7      105.0      121.5      134.2      148.4      165.1      182.4
     199.1      216.0      233.1      249.3      265.0      278.1      290.2      301.1      310.2      319.2
     326.5      334.7      343.2      349.0      354.5      360.7      368.1      374.3      375.8      371.8
     365.3      361.6      359.7
     117.8      116.0      114.8      112.9      111.2      109.4      107.7      105.0      102.1       99.4
      96.4       94.0       90.6       87.5       84.1       80.8       77.1       73.0       69.7       66.2
      63.3       60.1       57.4       54.9       52.2       50.7       48.3       46.4       44.7       40.6
      38.9       36.6       34.1       32.2       29.5       27.0       26.6       13.0       14.4       17.8
      26.7       41.6       67.2       82.9       96.4      110.0      127.1      145.9      162.2      178.6
     193.9      210.9      226.4      240.8      254.2      265.8      277.3      289.2      301.1      311.3
     321.1      328.6      334.1      341.6      348.2      357.0      364.7      369.7      369.9      366.4
     364.0      361.3      359.7
     117.8      115.2      113.4      111.7      109.6      107.7      104.6      102.5       99.2       95.4
      93.1       88.9       85.8       81.4       77.7       74.6       71.0       65.6       61.6       58.1
      54.8       51.0       46.8       43.6       39.9       37.2       34.2       32.2       30.5       28.3
      27.0       24.9       23.2       21.2       19.3       19.3       19.5       11.5       13.2       18.0
      29.0       46.0       60.6       74.6       87.9      105.4      122.3      139.0      153.6      168.6
     183.0      197.2      211.2      225.4      238.7      252.3      265.6      277.9      289.2      299.6
     310.6      319.4      329.3      337.8      345.9      352.8      358.4      361.0      361.1      361.7
     361.3      360.1      359.7
     117.8      115.0      113.5      111.7      109.2      106.9      104.4      101.2       98.3       94.3
      90.8       87.5       82.0       79.8       75.3       70.6       66.8       62.4       58.7       54.1
      50.6       46.0       43.2       39.9       35.7       32.8       29.7       28.3       25.3       22.8
      21.2       19.0       17.4       15.7       14.7       13.7       15.7        9.6       12.2       14.3
      19.5       29.3       40.7       53.0       68.5       83.3       98.8      114.8      131.1      147.7
     164.5      181.5      197.6      213.8      228.0      242.0      257.5      270.4      283.1      294.4
     305.4      316.1      325.5      333.4      340.0      347.0      352.2      355.5      356.8      358.8
     358.8      360.3      359.7
     117.8      115.2      113.4      111.7      109.6      107.7      104.6      102.5       99.2       95.4
      93.1       88.9       85.8       81.4       77.7       74.6       71.0       65.6       61.6       58.1
      54.8       51.0       46.8       43.6       39.9       37.2       34.2       32.2       30.5       28.3
      27.0       24.9       23.2       21.2       19.3       19.3       19.5       11.5       13.2       18.0
      29.0       46.0       60.6       74.6       87.9      105.4      122.3      139.0      153.6      168.6
     183.0      197.2      211.2      225.4      238.7      252.3      265.6      277.9      289.2      299.6
     310.6      319.4      329.3      337.8      345.9      352.8      358.4      361.0      361.1      361.7
     361.3      360.1      359.7
     117.8      116.0      114.8      112.9      111.2      109.4      107.7      105.0      102.1       99.4
      96.4       94.0       90.6       87.5       84.1       80.8       77.1       73.0       69.7       66.2
      63.3       60.1       57.4       54.9       52.2       50.7       48.3       46.4       44.7       40.6
      38.9       36.6       34.1       32.2       29.5       27.0       26.6       13.0       14.4       17.8
      26.7       41.6       67.2       82.9       96.4      110.0      127.1      145.9      162.2      178.6
     193.9      210.9      226.4      240.8      254.2      265.8      277.3      289.2      301.1      311.3
     321.1      328.6      334.1      341.6      348.2      357.0      364.7      369.7      369.9      366.4
     364.0      361.3      359.7
     117.8      117.5      116.9      116.0      115.0      113.5      112.5      109.6      107.7      105.4
     103.7       99.4       97.5       94.7       91.8       89.1       86.2       81.7       78.1       76.2
      73.0       70.4       68.1       66.2       62.9       61.4       58.3       56.0       54.3       50.3
      48.0       45.4       42.2       39.7       36.6       33.7       32.0       15.5       17.0       19.0
      29.3       39.1       62.4       91.7      105.0      121.5      134.2      148.4      165.1      182.4
     199.1      216.0      233.1      249.3      265.0      278.1      290.2      301.1      310.2      319.2
     326.5      334.7      343.2      349.0      354.5      360.7      368.1      374.3      375.8      371.8
     365.3      361.6      359.7
     117.8      118.3      117.3      116.5      116.4      115.4      114.0      112.4      110.3      108.4
     106.5      103.6      100.3       97.6       95.7       93.1       90.4       86.5       84.0       81.4
      78.5       75.9       73.8       71.4       68.9       66.8       63.5       61.1       58.7       55.8
      52.2       49.3       47.0       43.5       40.0       37.6       34.5       17.4       19.1       22.3
      31.7       43.9       67.1       93.6      111.4      125.8      139.7      153.9      167.0      182.4
     197.7      214.7      232.3      249.1      265.7      280.7      295.3      307.3      318.3      327.3
     334.7      340.3      346.7      354.1      360.4      366.1      371.9      376.9      377.1      372.8
     367.8      361.5      359.7
