IESNA:LM-63-1995
[TEST]     19442
[MANUFAC]COOPER LIGHTING - SHAPER                                
[LUMCAT]605-24-F2/14                                                                    
[LUMINAIRE]INTERIOR WALL MOUNT LUMINAIRE WITH WHITE INTERIOR AND WHITE PLASTIC LENS                                      
[LAMP]TWO SYLVANIA 14 WATT T5 LAMPS                                                   
[LAMPCAT]FP14/841. LUMEN RATING = 1800 LMS.                                              
[OTHER]ONE UNIVERSAL B228PUNV-C BALLAST OPERATING AT 120 VAC AND 30 WATTS              
TILT=NONE
2
      1800
1
73
17
1
1
  0.23
  2.00
  0.64
1
1
   34.0000
0 2.5 5 7.5 10 12.5 15 17.5 20 22.5 25 27.5 30 32.5 35 37.5
40 42.5 45 47.5 50 52.5 55 57.5 60 62.5 65 67.5 70 72.5 75
77.5 80 82.5 85 87.5 90 92.5 95 97.5 100 102.5 105 107.5 110
112.5 115 117.5 120 122.5 125 127.5 130 132.5 135 137.5 140
142.5 145 147.5 150 152.5 155 157.5 160 162.5 165 167.5 170
172.5 175 177.5 180
0 22.5 45 67.5 90 112.5 135 157.5 180 202.5 225 247.5
270 292.5 315 337.5 360
     183.7      190.6      204.7      217.8      230.9      244.8      258.8      272.2      284.8      297.9
     311.7      326.1      338.5      351.2      363.4      376.3      388.5      400.1      411.3      421.4
     433.7      443.8      452.2      460.9      470.7      478.7      487.2      494.3      502.7      508.7
     514.6      521.2      525.1      528.7      530.2      532.0      531.7      534.7      532.2      530.5
     526.9      522.4      515.8      510.2      503.3      495.3      486.2      477.3      468.3      459.4
     450.3      440.8      430.0      419.4      407.6      395.4      384.0      371.5      359.5      346.6
     334.4      321.5      308.4      295.0      282.7      268.6      256.1      242.1      229.5      216.4
     203.5      190.3      177.0
     183.7      193.9      205.6      217.8      230.7      242.3      255.5      267.4      278.6      289.8
     301.8      313.2      324.8      335.4      345.8      356.5      366.3      376.0      384.9      393.0
     403.4      411.5      418.4      425.2      433.3      439.1      446.2      452.5      458.4      464.2
     469.2      473.7      477.3      480.3      482.0      482.0      482.7      485.7      483.3      481.4
     478.2      474.6      469.2      464.2      456.7      449.8      443.2      436.4      429.5      422.5
     415.4      406.5      397.4      387.6      378.1      368.2      358.9      348.5      338.3      327.5
     317.1      305.4      294.1      283.0      272.6      260.3      248.3      236.3      224.1      212.4
     201.7      189.8      177.0
     183.7      193.6      203.1      212.2      220.5      228.6      237.5      244.4      252.8      259.9
     266.8      273.4      279.4      285.7      290.2      296.4      301.0      304.5      308.7      313.4
     316.5      319.4      322.8      325.4      327.3      329.6      330.0      332.3      332.7      335.9
     338.1      340.1      341.6      341.9      343.3      343.9      343.7      350.8      350.5      349.1
     346.4      344.3      341.2      338.3      335.9      333.2      331.4      328.1      325.4      321.9
     318.2      314.4      310.5      307.2      303.0      298.5      294.1      289.3      283.9      277.9
     272.2      265.7      259.3      252.2      245.4      237.5      230.4      221.7      212.8      204.4
     195.7      186.5      177.0
     183.7      190.9      196.0      199.9      203.7      207.0      208.9      211.6      214.3      215.7
     216.0      217.6      217.6      216.6      216.6      216.0      214.5      211.8      209.5      207.0
     204.7      201.4      196.9      193.0      189.8      185.5      181.3      176.9      173.0      168.5
     164.6      159.5      157.1      155.6      154.4      153.3      152.3      167.6      167.6      167.6
     167.0      168.2      170.3      173.0      176.6      179.6      182.3      185.9      189.2      192.1
     195.4      197.5      200.4      202.9      205.0      206.4      208.5      209.1      210.1      210.6
     210.6      210.6      209.5      207.4      206.8      204.4      201.4      198.4      195.2      191.3
     187.3      182.6      177.0
     183.7      188.5      187.3      186.2      184.9      182.9      179.9      176.7      173.1      169.1
     165.1      160.5      155.8      150.4      145.5      138.5      132.5      126.8      119.9      113.4
     106.0       98.9       91.2       83.6       76.5       68.5       61.2       53.8       46.5       39.1
      32.0       24.4       18.0       11.2        4.8        0.5        0.5        5.9       10.8       16.7
      22.7       29.1       35.9       42.8       49.4       56.0       62.4       68.9       76.0       82.1
      89.4       95.7      102.2      108.7      114.2      119.9      126.2      131.3      137.0      141.5
     146.1      151.0      154.7      158.8      161.5      164.6      166.6      168.8      171.2      172.2
     173.1      173.9      177.0
     183.7      180.7      175.1      169.1      162.5      156.0      148.2      141.1      134.4      127.0
     119.5      111.7      103.3       96.1       87.8       80.9       73.1       65.6       58.5       51.1
      44.2       37.2       31.0       25.4       19.4       14.6       10.0        5.9        2.3        0.5
       0.5        0.5        0.5        0.5        0.5        0.5        0.5        4.4        4.4        4.1
       4.7        3.8        4.4        4.4        8.0       11.0       15.2       19.6       23.9       29.5
      34.3       40.5       46.9       53.4       60.0       67.2       74.1       81.6       88.7       95.9
     103.1      110.0      117.1      122.8      129.9      136.3      142.8      149.1      156.0      162.0
     167.0      172.6      177.0
     183.7      175.1      165.2      156.0      144.9      136.3      125.8      116.2      107.5       98.2
      88.7       80.6       72.2       63.3       55.8       48.0       40.9       33.1       26.8       21.2
      16.4       11.9        7.4        3.2        0.9        0.5        0.9        0.5        0.5        0.5
       0.5        0.5        0.5        0.5        0.5        0.5        0.5        2.3        2.6        2.6
       2.6        2.3        2.9        2.3        2.9        2.0        2.6        2.9        3.8        7.1
       9.8       14.8       19.4       25.0       29.8       35.5       42.1       49.0       56.5       63.9
      71.6       80.3       88.0       97.3      105.8      114.7      122.4      132.0      141.1      150.0
     159.3      168.2      177.0
     183.7      169.7      156.6      144.9      134.1      123.1      112.0      101.5       89.6       81.2
      71.6       61.5       53.8       45.3       38.2       31.6       25.4       19.1       14.0        9.2
       4.1        1.1        0.5        0.5        0.5        0.5        0.5        0.5        0.5        0.5
       0.5        0.5        0.5        0.5        0.9        0.5        0.5        0.5        0.5        0.5
       0.5        0.5        0.5        0.5        0.5        0.5        0.5        0.5        0.5        0.5
       0.5        2.6        6.3       10.0       15.4       20.8       26.8       32.2       40.3       47.4
      55.2       63.6       73.1       82.2       92.0      100.9      111.1      121.6      132.6      143.4
     154.4      165.8      177.0
     183.7      165.8      153.3      141.3      128.4      118.3      105.4       95.0       85.5       75.3
      66.2       57.1       48.6       40.3       33.1       25.4       19.6       13.4        8.9        4.4
       0.5        0.5        0.5        0.5        0.5        0.5        0.5        0.5        0.5        0.5
       0.5        0.5        0.5        0.5        0.5        0.5        0.5        0.5        0.5        0.5
       0.5        0.5        0.5        0.5        0.5        0.5        0.5        0.5        0.5        0.5
       0.5        0.5        1.4        6.3       10.0       15.4       21.4       27.1       34.5       41.1
      49.8       57.6       67.5       75.8       85.7       95.9      106.7      117.4      128.8      140.4
     152.7      164.6      177.0
     183.7      169.7      156.6      144.9      134.1      123.1      112.0      101.5       89.6       81.2
      71.6       61.5       53.8       45.3       38.2       31.6       25.4       19.1       14.0        9.2
       4.1        1.1        0.5        0.5        0.5        0.5        0.5        0.5        0.5        0.5
       0.5        0.5        0.5        0.5        0.9        0.5        0.5        0.5        0.5        0.5
       0.5        0.5        0.5        0.5        0.5        0.5        0.5        0.5        0.5        0.5
       0.5        2.6        6.3       10.0       15.4       20.8       26.8       32.2       40.3       47.4
      55.2       63.6       73.1       82.2       92.0      100.9      111.1      121.6      132.6      143.4
     154.4      165.8      177.0
     183.7      175.1      165.2      156.0      144.9      136.3      125.8      116.2      107.5       98.2
      88.7       80.6       72.2       63.3       55.8       48.0       40.9       33.1       26.8       21.2
      16.4       11.9        7.4        3.2        0.9        0.5        0.9        0.5        0.5        0.5
       0.5        0.5        0.5        0.5        0.5        0.5        0.5        2.3        2.6        2.6
       2.6        2.3        2.9        2.3        2.9        2.0        2.6        2.9        3.8        7.1
       9.8       14.8       19.4       25.0       29.8       35.5       42.1       49.0       56.5       63.9
      71.6       80.3       88.0       97.3      105.8      114.7      122.4      132.0      141.1      150.0
     159.3      168.2      177.0
     183.7      180.7      175.1      169.1      162.5      156.0      148.2      141.1      134.4      127.0
     119.5      111.7      103.3       96.1       87.8       80.9       73.1       65.6       58.5       51.1
      44.2       37.2       31.0       25.4       19.4       14.6       10.0        5.9        2.3        0.5
       0.5        0.5        0.5        0.5        0.5        0.5        0.5        4.4        4.4        4.1
       4.7        3.8        4.4        4.4        8.0       11.0       15.2       19.6       23.9       29.5
      34.3       40.5       46.9       53.4       60.0       67.2       74.1       81.6       88.7       95.9
     103.1      110.0      117.1      122.8      129.9      136.3      142.8      149.1      156.0      162.0
     167.0      172.6      177.0
     183.7      188.5      187.3      186.2      184.9      182.9      179.9      176.7      173.1      169.1
     165.1      160.5      155.8      150.4      145.5      138.5      132.5      126.8      119.9      113.4
     106.0       98.9       91.2       83.6       76.5       68.5       61.2       53.8       46.5       39.1
      32.0       24.4       18.0       11.2        4.8        0.5        0.5        5.9       10.8       16.7
      22.7       29.1       35.9       42.8       49.4       56.0       62.4       68.9       76.0       82.1
      89.4       95.7      102.2      108.7      114.2      119.9      126.2      131.3      137.0      141.5
     146.1      151.0      154.7      158.8      161.5      164.6      166.6      168.8      171.2      172.2
     173.1      173.9      177.0
     183.7      190.9      196.0      199.9      203.7      207.0      208.9      211.6      214.3      215.7
     216.0      217.6      217.6      216.6      216.6      216.0      214.5      211.8      209.5      207.0
     204.7      201.4      196.9      193.0      189.8      185.5      181.3      176.9      173.0      168.5
     164.6      159.5      157.1      155.6      154.4      153.3      152.3      167.6      167.6      167.6
     167.0      168.2      170.3      173.0      176.6      179.6      182.3      185.9      189.2      192.1
     195.4      197.5      200.4      202.9      205.0      206.4      208.5      209.1      210.1      210.6
     210.6      210.6      209.5      207.4      206.8      204.4      201.4      198.4      195.2      191.3
     187.3      182.6      177.0
     183.7      193.6      203.1      212.2      220.5      228.6      237.5      244.4      252.8      259.9
     266.8      273.4      279.4      285.7      290.2      296.4      301.0      304.5      308.7      313.4
     316.5      319.4      322.8      325.4      327.3      329.6      330.0      332.3      332.7      335.9
     338.1      340.1      341.6      341.9      343.3      343.9      343.7      350.8      350.5      349.1
     346.4      344.3      341.2      338.3      335.9      333.2      331.4      328.1      325.4      321.9
     318.2      314.4      310.5      307.2      303.0      298.5      294.1      289.3      283.9      277.9
     272.2      265.7      259.3      252.2      245.4      237.5      230.4      221.7      212.8      204.4
     195.7      186.5      177.0
     183.7      193.9      205.6      217.8      230.7      242.3      255.5      267.4      278.6      289.8
     301.8      313.2      324.8      335.4      345.8      356.5      366.3      376.0      384.9      393.0
     403.4      411.5      418.4      425.2      433.3      439.1      446.2      452.5      458.4      464.2
     469.2      473.7      477.3      480.3      482.0      482.0      482.7      485.7      483.3      481.4
     478.2      474.6      469.2      464.2      456.7      449.8      443.2      436.4      429.5      422.5
     415.4      406.5      397.4      387.6      378.1      368.2      358.9      348.5      338.3      327.5
     317.1      305.4      294.1      283.0      272.6      260.3      248.3      236.3      224.1      212.4
     201.7      189.8      177.0
     183.7      190.6      204.7      217.8      230.9      244.8      258.8      272.2      284.8      297.9
     311.7      326.1      338.5      351.2      363.4      376.3      388.5      400.1      411.3      421.4
     433.7      443.8      452.2      460.9      470.7      478.7      487.2      494.3      502.7      508.7
     514.6      521.2      525.1      528.7      530.2      532.0      531.7      534.7      532.2      530.5
     526.9      522.4      515.8      510.2      503.3      495.3      486.2      477.3      468.3      459.4
     450.3      440.8      430.0      419.4      407.6      395.4      384.0      371.5      359.5      346.6
     334.4      321.5      308.4      295.0      282.7      268.6      256.1      242.1      229.5      216.4
     203.5      190.3      177.0
