IESNA:LM-63-1995
[TEST]    19162A
[MANUFAC]COOPER LIGHTING - SHAPER                                
[LUMCAT]661-CF1/13                                                                      
[LUMINAIRE]INTERIOR WALL MOUNT LUMINAIRE WITH WHITE INTERIOR AND WHITE PLASTIC LENS                                      
[LAMP]ONE 13 WATT CPFL LAMP. LUMEN RATING = 900 LMS.                                  
[OTHER]SIMULATED REPORT FROM TEST WITH 1 - 26 WATT LAMP                                
TILT=NONE
1
       900
1
73
17
1
1
  0.00
  0.00
  0.00
1
1
    0.0000
0 2.5 5 7.5 10 12.5 15 17.5 20 22.5 25 27.5 30 32.5 35 37.5
40 42.5 45 47.5 50 52.5 55 57.5 60 62.5 65 67.5 70 72.5 75
77.5 80 82.5 85 87.5 90 92.5 95 97.5 100 102.5 105 107.5 110
112.5 115 117.5 120 122.5 125 127.5 130 132.5 135 137.5 140
142.5 145 147.5 150 152.5 155 157.5 160 162.5 165 167.5 170
172.5 175 177.5 180
0 22.5 45 67.5 90 112.5 135 157.5 180 202.5 225 247.5
270 292.5 315 337.5 360
       0.5        0.5        0.5        0.5        0.5        0.5        0.5        1.2        5.4       10.5
      14.8       18.1       19.6       21.0       22.1       23.0       24.0       24.5       25.1       25.5
      25.3       25.6       25.9       25.9       26.8       27.6       28.3       29.9       31.0       32.3
      33.4       34.2       35.1       35.4       35.9       36.3       36.5       36.1       35.6       35.3
      35.3       34.8       34.3       33.7       33.0       32.0       30.8       29.9       28.7       27.4
      26.2       25.0       24.4       24.7       25.6       26.7       27.8       29.5       30.8       32.6
      33.9       35.3       36.0       35.8       33.8       30.7       26.8       22.5       18.4       14.4
      10.7        7.7        6.4
       0.5        0.5        0.5        0.5        0.5        0.5        2.5        5.9       10.5       14.2
      17.8       21.8       25.0       27.4       29.4       32.0       33.9       35.9       37.9       39.8
      42.2       44.3       46.3       49.1       51.7       54.1       56.7       59.1       61.3       63.1
      65.0       67.3       68.8       69.9       71.1       72.0       72.1       71.9       69.3       68.1
      67.1       66.2       65.0       63.6       61.4       59.5       57.3       55.5       53.3       50.7
      48.4       45.5       43.3       41.3       39.1       37.6       36.5       36.7       37.7       38.5
      39.7       40.5       41.0       40.3       39.0       36.1       32.4       27.1       21.3       15.4
      10.8        7.2        6.4
       0.5        0.5        0.5        0.5        0.5        1.9        5.5        9.2       12.9       16.8
      20.7       24.7       28.2       32.1       35.4       39.0       42.2       45.9       49.4       52.8
      56.7       60.3       63.9       67.7       71.2       74.5       78.2       81.4       84.4       86.8
      89.9       92.3       94.3       96.4       97.7       97.8       97.8       97.3       96.1       95.7
      94.3       93.2       92.2       90.4       87.8       85.3       82.6       80.1       77.2       73.5
      70.1       66.8       63.4       60.1       56.7       53.6       50.4       47.9       46.4       45.4
      45.4       45.4       45.7       45.4       44.3       41.5       37.8       32.9       27.5       20.0
      12.8        7.1        6.4
       0.5        0.5        0.5        0.5        0.5        4.0        7.9       11.6       16.0       20.0
      24.0       28.2       32.2       36.1       40.6       44.6       48.7       53.2       57.3       61.0
      65.9       69.9       74.3       78.4       81.9       86.3       90.1       93.6       96.9      100.3
     103.3      105.6      108.4      110.5      112.2      112.2      116.7      112.0      112.0      111.5
     111.1      109.8      108.7      107.1      104.5      101.8       99.1       96.2       93.3       89.3
      85.9       81.3       77.3       73.7       69.6       65.5       61.3       57.8       55.0       52.3
      50.5       49.4       48.7       47.6       46.3       44.1       40.6       35.6       29.9       22.7
      14.7        7.3        6.4
       0.5        0.5        0.5        0.5        0.8        4.5        8.7       12.9       16.9       20.9
      25.0       29.7       33.6       38.5       42.8       47.2       51.5       55.4       60.3       64.4
      69.0       73.3       77.0       81.6       85.5       89.3       93.6       97.1      100.6      103.5
     107.0      109.8      112.2      114.7      116.6      116.7      116.7      116.7      116.7      116.6
     116.0      115.1      113.4      112.2      110.2      107.4      104.8      101.8       98.7       95.1
      91.4       86.7       82.7       78.8       74.5       70.1       65.6       61.7       58.3       54.9
      52.5       50.6       49.1       47.7       45.9       43.8       40.2       34.8       28.7       22.6
      15.1        7.5        6.4
       0.5        0.5        0.5        0.5        0.5        4.0        7.9       11.6       16.0       20.0
      24.0       28.2       32.2       36.1       40.6       44.6       48.7       53.2       57.3       61.0
      65.9       69.9       74.3       78.4       81.9       86.3       90.1       93.6       96.9      100.3
     103.3      105.6      108.4      110.5      112.2      112.2      116.7      112.0      112.0      111.5
     111.1      109.8      108.7      107.1      104.5      101.8       99.1       96.2       93.3       89.3
      85.9       81.3       77.3       73.7       69.6       65.5       61.3       57.8       55.0       52.3
      50.5       49.4       48.7       47.6       46.3       44.1       40.6       35.6       29.9       22.7
      14.7        7.3        6.4
       0.5        0.5        0.5        0.5        0.5        1.9        5.5        9.2       12.9       16.8
      20.7       24.7       28.2       32.1       35.4       39.0       42.2       45.9       49.4       52.8
      56.7       60.3       63.9       67.7       71.2       74.5       78.2       81.4       84.4       86.8
      89.9       92.3       94.3       96.4       97.7       97.8       97.8       97.3       96.1       95.7
      94.3       93.2       92.2       90.4       87.8       85.3       82.6       80.1       77.2       73.5
      70.1       66.8       63.4       60.1       56.7       53.6       50.4       47.9       46.4       45.4
      45.4       45.4       45.7       45.4       44.3       41.5       37.8       32.9       27.5       20.0
      12.8        7.1        6.4
       0.5        0.5        0.5        0.5        0.5        0.5        2.5        5.9       10.5       14.2
      17.8       21.8       25.0       27.4       29.4       32.0       33.9       35.9       37.9       39.8
      42.2       44.3       46.3       49.1       51.7       54.1       56.7       59.1       61.3       63.1
      65.0       67.3       68.8       69.9       71.1       72.0       72.1       71.9       69.3       68.1
      67.1       66.2       65.0       63.6       61.4       59.5       57.3       55.5       53.3       50.7
      48.4       45.5       43.3       41.3       39.1       37.6       36.5       36.7       37.7       38.5
      39.7       40.5       41.0       40.3       39.0       36.1       32.4       27.1       21.3       15.4
      10.8        7.2        6.4
       0.5        0.5        0.5        0.5        0.5        0.5        0.5        1.2        5.4       10.5
      14.8       18.1       19.6       21.0       22.1       23.0       24.0       24.5       25.1       25.5
      25.3       25.6       25.9       25.9       26.8       27.6       28.3       29.9       31.0       32.3
      33.4       34.2       35.1       35.4       35.9       36.3       36.5       36.1       35.6       35.3
      35.3       34.8       34.3       33.7       33.0       32.0       30.8       29.9       28.7       27.4
      26.2       25.0       24.4       24.7       25.6       26.7       27.8       29.5       30.8       32.6
      33.9       35.3       36.0       35.8       33.8       30.7       26.8       22.5       18.4       14.4
      10.7        7.7        6.4
       0.5        0.5        0.5        0.5        0.5        0.5        0.5        0.5        0.5        0.5
       2.0        5.0        8.1       11.9       15.3       17.8       19.4       20.4       21.5       22.5
      23.4       23.8       24.2       24.2       23.8       23.7       22.6       22.2       21.9       22.1
      22.8       22.9       23.3       23.3       23.5       23.6       23.7       22.8       21.8       18.5
      15.2       12.7       12.9       12.7       12.7       12.4       12.4       12.4       13.0       13.0
      14.2       15.4       17.4       19.5       22.7       25.8       29.0       32.2       35.1       37.6
      39.1       39.2       37.8       35.7       33.0       30.1       27.2       23.5       19.4       15.5
      11.4        8.4        6.4
       0.5        0.5        0.5        0.5        0.5        0.5        0.5        0.5        0.5        0.5
       0.5        0.5        1.3        2.0        2.6        3.8        4.4        4.6        5.2        5.9
       6.7        7.1        7.4        8.0        8.1        8.5        8.4        8.9        9.2        9.2
       9.6        9.6        9.9        9.9        9.9       10.3       10.2       10.8       11.2       11.2
      11.8       11.7       12.4       12.2       12.8       12.8       13.1       13.3       13.9       14.1
      14.8       15.6       16.7       17.7       18.8       20.3       21.5       22.3       23.8       24.7
      25.5       26.0       26.7       27.0       26.6       26.0       24.8       22.6       20.0       16.4
      12.8        9.0        6.4
       0.5        0.5        0.5        0.5        0.5        0.5        0.5        0.5        0.5        0.5
       1.0        1.6        2.6        3.6        4.5        5.3        6.0        7.1        7.9        8.7
       9.0        9.7       10.5       10.9       11.8       12.2       12.8       13.2       13.6       14.0
      14.2       14.3       14.5       14.6       14.7       15.2       15.1       16.0       17.0       17.4
      17.6       17.8       18.3       18.3       19.0       19.0       19.6       19.8       20.5       20.8
      21.3       21.5       22.1       22.8       23.3       24.1       25.0       25.6       26.7       27.2
      28.1       28.4       28.7       28.2       27.5       26.8       25.0       22.5       20.1       16.7
      13.4        9.2        6.4
       0.5        0.5        0.5        0.5        0.5        0.5        0.5        0.5        0.5        0.5
       0.8        1.8        2.5        4.0        4.8        5.5        6.8        7.9        8.9        9.9
      10.7       11.7       12.7       13.6       13.9       14.7       15.2       15.6       16.0       16.7
      16.9       17.6       17.8       18.1       18.2       18.3       18.4       18.9       19.2       19.9
      20.4       20.8       20.8       21.3       21.5       22.0       22.5       22.6       23.1       23.3
      23.8       24.3       24.7       25.6       26.0       26.6       27.4       27.9       28.5       29.1
      29.2       29.6       29.2       29.0       28.0       26.7       24.7       22.1       19.0       16.4
      13.2        9.2        6.4
       0.5        0.5        0.5        0.5        0.5        0.5        0.5        0.5        0.5        0.5
       1.0        1.6        2.6        3.6        4.5        5.3        6.0        7.1        7.9        8.7
       9.0        9.7       10.5       10.9       11.8       12.2       12.8       13.2       13.6       14.0
      14.2       14.3       14.5       14.6       14.7       15.2       15.1       16.0       17.0       17.4
      17.6       17.8       18.3       18.3       19.0       19.0       19.6       19.8       20.5       20.8
      21.3       21.5       22.1       22.8       23.3       24.1       25.0       25.6       26.7       27.2
      28.1       28.4       28.7       28.2       27.5       26.8       25.0       22.5       20.1       16.7
      13.4        9.2        6.4
       0.5        0.5        0.5        0.5        0.5        0.5        0.5        0.5        0.5        0.5
       0.5        0.5        1.3        2.0        2.6        3.8        4.4        4.6        5.2        5.9
       6.7        7.1        7.4        8.0        8.1        8.5        8.4        8.9        9.2        9.2
       9.6        9.6        9.9        9.9        9.9       10.3       10.2       10.8       11.2       11.2
      11.8       11.7       12.4       12.2       12.8       12.8       13.1       13.3       13.9       14.1
      14.8       15.6       16.7       17.7       18.8       20.3       21.5       22.3       23.8       24.7
      25.5       26.0       26.7       27.0       26.6       26.0       24.8       22.6       20.0       16.4
      12.8        9.0        6.4
       0.5        0.5        0.5        0.5        0.5        0.5        0.5        0.5        0.5        0.5
       2.0        5.0        8.1       11.9       15.3       17.8       19.4       20.4       21.5       22.5
      23.4       23.8       24.2       24.2       23.8       23.7       22.6       22.2       21.9       22.1
      22.8       22.9       23.3       23.3       23.5       23.6       23.7       22.8       21.8       18.5
      15.2       12.7       12.9       12.7       12.7       12.4       12.4       12.4       13.0       13.0
      14.2       15.4       17.4       19.5       22.7       25.8       29.0       32.2       35.1       37.6
      39.1       39.2       37.8       35.7       33.0       30.1       27.2       23.5       19.4       15.5
      11.4        8.4        6.4
       0.5        0.5        0.5        0.5        0.5        0.5        0.5        1.2        5.4       10.5
      14.8       18.1       19.6       21.0       22.1       23.0       24.0       24.5       25.1       25.5
      25.3       25.6       25.9       25.9       26.8       27.6       28.3       29.9       31.0       32.3
      33.4       34.2       35.1       35.4       35.9       36.3       36.5       36.1       35.6       35.3
      35.3       34.8       34.3       33.7       33.0       32.0       30.8       29.9       28.7       27.4
      26.2       25.0       24.4       24.7       25.6       26.7       27.8       29.5       30.8       32.6
      33.9       35.3       36.0       35.8       33.8       30.7       26.8       22.5       18.4       14.4
      10.7        7.7        6.4
