IESNA:LM-63-1995
[TEST]16787
[MANUFAC]COOPER LIGHTING - SHAPER                                            
[LUMCAT]606-CF2/26-120SSB-MW                                                            
[LUMINAIRE]WALL MOUNT LUMINAIRE                                              
[MORE]WITH WHITE INTERIOR AND WHITE LENS
[LAMP]TWO SYLVANIA 26 WATT CPFL LAMPS                                                 
[LAMPCAT]CF26DD/E/841. LUMEN RATING = 3650 LMS.                                          
[OTHER]ONE SYLVANIA QTP2X26CF/UNV TS BALLAST OPERATING AT 120 VAC AND 52 WATTS         
TILT=NONE
1
      3650
1
73
17
1
1
 -1.58
   .00
   .00
1
1
   52.0000
0 2.5 5 7.5 10 12.5 15 17.5 20 22.5 25 27.5 30 32.5 35 37.5
40 42.5 45 47.5 50 52.5 55 57.5 60 62.5 65 67.5 70 72.5 75
77.5 80 82.5 85 87.5 90 92.5 95 97.5 100 102.5 105 107.5 110
112.5 115 117.5 120 122.5 125 127.5 130 132.5 135 137.5 140
142.5 145 147.5 150 152.5 155 157.5 160 162.5 165 167.5 170
172.5 175 177.5 180
0 22.5 45 67.5 90 112.5 135 157.5 180 202.5 225 247.5
270 292.5 315 337.5 360
     359.3      357.2      357.2      356.8      355.8      354.5      352.4      349.4      345.2      339.5
     332.5      323.4      313.2      301.0      287.5      272.0      256.5      239.1      221.8      202.8
     182.1      161.6      140.4      118.9       96.8       76.4       58.8       46.4       37.5       30.8
      25.9       21.8       19.0       16.6       14.8       14.0       14.4       13.6       15.7       18.5
      23.1       28.0       34.8       43.0       53.2       63.7       77.2       95.3      115.4      136.6
     157.3      178.1      198.2      218.4      238.3      257.0      275.7      292.5      309.6      324.1
     337.5      348.3      357.3      364.7      370.9      375.6      379.1      381.5      383.0      383.8
     384.2      384.2      384.9
     359.3      349.1      338.0      325.3      310.7      297.0      281.3      264.4      243.8      219.5
     199.0      174.9      149.3      125.0      103.4       83.7       70.7       62.9       61.0       60.8
      60.4       59.9       59.7       59.1       58.6       57.8       57.0       56.1       55.0       54.0
      52.9       51.6       50.2       48.8       47.3       45.8       44.5       45.4       44.5       44.3
      43.4       42.6       42.1       41.3       40.8       40.8       41.0       42.6       48.1       64.2
      87.8      119.3      153.9      191.2      225.5      258.4      291.4      318.9      346.7      368.0
     381.8      387.7      387.7      385.0      382.6      382.6      383.7      385.6      386.4      385.8
     384.7      384.7      384.9
     359.3      344.6      321.6      298.1      270.2      234.9      202.0      163.1      126.9       96.2
      79.4       75.0       77.3       80.1       82.9       85.5       88.0       90.7       93.2       95.3
      97.2       98.5       99.9      100.9      101.8      102.9      103.7      104.2      104.2      104.2
     103.9      103.4      102.9      101.8      100.9       99.9       98.5       98.5       96.6       95.3
      93.4       91.5       89.3       87.0       84.6       81.8       79.4       76.4       73.4       70.2
      67.2       64.0       61.5       59.3       58.6       62.3       84.8      120.4      165.3      212.2
     257.3      293.5      327.0      357.5      382.8      400.2      397.8      386.1      377.2      376.6
     377.4      377.0      384.9
     359.3      338.8      307.8      274.9      229.8      187.4      138.7       98.5       79.4       78.8
      82.9       87.8       92.6       97.2      102.0      106.3      110.7      114.7      118.3      121.7
     125.0      128.0      130.7      133.1      135.3      137.2      139.1      140.4      141.5      142.1
     142.3      142.3      141.7      141.5      141.2      140.4      139.3      138.2      136.3      133.9
     131.8      129.3      126.4      123.1      119.6      115.9      112.1      107.8      103.7       99.0
      94.7       89.9       84.8       79.7       74.5       70.0       65.6       61.5       61.0       81.8
     124.1      175.8      233.9      284.3      323.8      362.6      392.6      403.1      389.6      377.4
     378.5      378.8      384.9
     359.3      334.5      301.1      263.8      216.0      166.3      116.4       84.2       76.7       81.6
      87.0       92.8       98.3      103.9      109.1      114.2      118.8      123.4      127.7      131.8
     135.5      139.1      142.5      145.5      148.5      150.9      152.8      154.7      156.1      157.1
     157.4      157.7      157.7      157.4      157.1      156.3      155.2      154.4      152.2      150.4
     147.7      144.9      141.7      138.2      134.2      130.1      126.1      121.5      116.6      111.5
     106.3      100.9       95.6       89.6       83.7       77.8       72.1       67.2       62.3       61.8
      87.4      135.3      195.5      255.6      304.9      350.4      386.6      411.2      401.7      386.6
     387.5      389.0      384.9
     359.3      338.8      307.8      274.9      229.8      187.4      138.7       98.5       79.4       78.8
      82.9       87.8       92.6       97.2      102.0      106.3      110.7      114.7      118.3      121.7
     125.0      128.0      130.7      133.1      135.3      137.2      139.1      140.4      141.5      142.1
     142.3      142.3      141.7      141.5      141.2      140.4      139.3      138.2      136.3      133.9
     131.8      129.3      126.4      123.1      119.6      115.9      112.1      107.8      103.7       99.0
      94.7       89.9       84.8       79.7       74.5       70.0       65.6       61.5       61.0       81.8
     124.1      175.8      233.9      284.3      323.8      362.6      392.6      403.1      389.6      377.4
     378.5      378.8      384.9
     359.3      344.6      321.6      298.1      270.2      234.9      202.0      163.1      126.9       96.2
      79.4       75.0       77.3       80.1       82.9       85.5       88.0       90.7       93.2       95.3
      97.2       98.5       99.9      100.9      101.8      102.9      103.7      104.2      104.2      104.2
     103.9      103.4      102.9      101.8      100.9       99.9       98.5       98.5       96.6       95.3
      93.4       91.5       89.3       87.0       84.6       81.8       79.4       76.4       73.4       70.2
      67.2       64.0       61.5       59.3       58.6       62.3       84.8      120.4      165.3      212.2
     257.3      293.5      327.0      357.5      382.8      400.2      397.8      386.1      377.2      376.6
     377.4      377.0      384.9
     359.3      349.1      338.0      325.3      310.7      297.0      281.3      264.4      243.8      219.5
     199.0      174.9      149.3      125.0      103.4       83.7       70.7       62.9       61.0       60.8
      60.4       59.9       59.7       59.1       58.6       57.8       57.0       56.1       55.0       54.0
      52.9       51.6       50.2       48.8       47.3       45.8       44.5       45.4       44.5       44.3
      43.4       42.6       42.1       41.3       40.8       40.8       41.0       42.6       48.1       64.2
      87.8      119.3      153.9      191.2      225.5      258.4      291.4      318.9      346.7      368.0
     381.8      387.7      387.7      385.0      382.6      382.6      383.7      385.6      386.4      385.8
     384.7      384.7      384.9
     359.3      357.2      357.2      356.8      355.8      354.5      352.4      349.4      345.2      339.5
     332.5      323.4      313.2      301.0      287.5      272.0      256.5      239.1      221.8      202.8
     182.1      161.6      140.4      118.9       96.8       76.4       58.8       46.4       37.5       30.8
      25.9       21.8       19.0       16.6       14.8       14.0       14.4       13.6       15.7       18.5
      23.1       28.0       34.8       43.0       53.2       63.7       77.2       95.3      115.4      136.6
     157.3      178.1      198.2      218.4      238.3      257.0      275.7      292.5      309.6      324.1
     337.5      348.3      357.3      364.7      370.9      375.6      379.1      381.5      383.0      383.8
     384.2      384.2      384.9
     359.3      364.2      371.2      376.4      380.4      382.8      385.0      389.0      395.5      400.4
     401.2      396.7      386.9      371.8      355.8      340.2      328.3      318.6      309.4      300.5
     291.6      283.5      274.6      264.6      254.6      248.3      244.4      239.5      232.4      224.7
     217.9      210.9      205.4      199.8      193.3      183.3      182.0      151.5      160.6      160.4
     165.5      174.1      183.1      193.0      203.6      213.3      223.2      232.4      240.8      250.8
     260.5      272.5      284.3      298.7      312.9      328.1      343.1      357.7      371.5      382.8
     392.6      399.1      401.7      401.7      400.2      398.5      396.9      394.4      392.0      389.6
     387.7      386.4      384.9
     359.3      373.6      383.2      390.1      402.3      421.2      437.9      447.4      453.8      456.6
     456.6      455.7      454.7      453.8      453.3      453.3      454.2      456.3      460.4      464.7
     467.7      469.8      471.2      467.7      460.4      454.9      454.7      454.7      451.9      447.4
     442.8      438.2      432.3      423.9      415.2      407.7      406.1      359.9      371.5      385.6
     398.2      406.1      412.6      420.4      429.1      436.4      444.6      452.3      458.7      463.9
     469.0      474.4      478.2      480.6      480.6      480.4      478.9      477.6      475.5      472.0
     468.8      465.8      463.0      459.2      453.1      444.4      434.7      422.5      410.9      401.7
     393.1      386.6      384.9
     359.3      379.6      390.1      402.8      427.9      448.5      461.7      469.8      474.4      479.3
     484.1      489.8      494.6      501.2      509.5      521.6      536.2      548.9      560.2      568.6
     573.5      577.3      580.5      581.9      578.6      573.7      575.4      580.2      583.4      584.6
     584.3      580.0      573.2      564.9      558.3      552.4      552.7      530.0      542.2      555.7
     571.6      581.6      586.4      588.3      591.1      594.5      595.4      596.7      601.8      601.3
     599.4      596.7      591.3      588.1      584.0      577.6      570.3      560.8      550.8      540.3
     529.5      517.1      503.0      491.4      481.9      472.0      459.2      443.9      427.9      410.1
     396.7      385.6      384.9
     359.3      377.2      389.0      405.3      432.6      451.0      463.9      470.9      476.8      482.5
     489.6      496.5      503.6      513.0      525.9      542.4      558.1      573.2      585.7      593.5
     599.7      604.0      607.2      610.8      610.2      607.6      607.8      614.0      620.7      623.7
     622.6      617.5      610.0      599.9      592.6      586.8      587.5      607.0      620.5      633.7
     649.9      659.1      664.2      666.4      668.3      668.8      669.0      667.5      668.8      671.8
     667.9      663.4      656.3      646.4      640.0      632.9      623.9      613.7      600.3      587.5
     572.7      558.1      541.3      525.2      510.9      498.7      486.2      469.5      451.7      430.4
     413.4      399.1      384.9
     359.3      379.6      390.1      402.8      427.9      448.5      461.7      469.8      474.4      479.3
     484.1      489.8      494.6      501.2      509.5      521.6      536.2      548.9      560.2      568.6
     573.5      577.3      580.5      581.9      578.6      573.7      575.4      580.2      583.4      584.6
     584.3      580.0      573.2      564.9      558.3      552.4      552.7      530.0      542.2      555.7
     571.6      581.6      586.4      588.3      591.1      594.5      595.4      596.7      601.8      601.3
     599.4      596.7      591.3      588.1      584.0      577.6      570.3      560.8      550.8      540.3
     529.5      517.1      503.0      491.4      481.9      472.0      459.2      443.9      427.9      410.1
     396.7      385.6      384.9
     359.3      373.6      383.2      390.1      402.3      421.2      437.9      447.4      453.8      456.6
     456.6      455.7      454.7      453.8      453.3      453.3      454.2      456.3      460.4      464.7
     467.7      469.8      471.2      467.7      460.4      454.9      454.7      454.7      451.9      447.4
     442.8      438.2      432.3      423.9      415.2      407.7      406.1      359.9      371.5      385.6
     398.2      406.1      412.6      420.4      429.1      436.4      444.6      452.3      458.7      463.9
     469.0      474.4      478.2      480.6      480.6      480.4      478.9      477.6      475.5      472.0
     468.8      465.8      463.0      459.2      453.1      444.4      434.7      422.5      410.9      401.7
     393.1      386.6      384.9
     359.3      364.2      371.2      376.4      380.4      382.8      385.0      389.0      395.5      400.4
     401.2      396.7      386.9      371.8      355.8      340.2      328.3      318.6      309.4      300.5
     291.6      283.5      274.6      264.6      254.6      248.3      244.4      239.5      232.4      224.7
     217.9      210.9      205.4      199.8      193.3      183.3      182.0      151.5      160.6      160.4
     165.5      174.1      183.1      193.0      203.6      213.3      223.2      232.4      240.8      250.8
     260.5      272.5      284.3      298.7      312.9      328.1      343.1      357.7      371.5      382.8
     392.6      399.1      401.7      401.7      400.2      398.5      396.9      394.4      392.0      389.6
     387.7      386.4      384.9
     359.3      357.2      357.2      356.8      355.8      354.5      352.4      349.4      345.2      339.5
     332.5      323.4      313.2      301.0      287.5      272.0      256.5      239.1      221.8      202.8
     182.1      161.6      140.4      118.9       96.8       76.4       58.8       46.4       37.5       30.8
      25.9       21.8       19.0       16.6       14.8       14.0       14.4       13.6       15.7       18.5
      23.1       28.0       34.8       43.0       53.2       63.7       77.2       95.3      115.4      136.6
     157.3      178.1      198.2      218.4      238.3      257.0      275.7      292.5      309.6      324.1
     337.5      348.3      357.3      364.7      370.9      375.6      379.1      381.5      383.0      383.8
     384.2      384.2      384.9
