IESNA:LM-63-1995
[TEST]     20051
[MANUFAC]COOPER LIGHTING - SHAPER                                
[LUMCAT]608-18-CF2/27                                                                   
[LUMINAIRE]INTERIOR WALL MOUNT LUMINAIRE WITH WHITE INTERIOR AND WHITE PLASTIC LENS                                      
[LAMP]TWO GE 27 WATT CPFL LAMPS                                                       
[LAMPCAT]F27BX/SPX41. LUMEN RATING = 3600 LMS.                                           
[OTHER]ONE K-TRONIC KT-T8-232/IS/MVP BALLAST OPERATING AT 120 VAC AND 38 WATTS         
TILT=NONE
1
      3600
1
73
17
1
1
  0.35
  1.44
  0.62
1
1
   38.0000
0 2.5 5 7.5 10 12.5 15 17.5 20 22.5 25 27.5 30 32.5 35 37.5
40 42.5 45 47.5 50 52.5 55 57.5 60 62.5 65 67.5 70 72.5 75
77.5 80 82.5 85 87.5 90 92.5 95 97.5 100 102.5 105 107.5 110
112.5 115 117.5 120 122.5 125 127.5 130 132.5 135 137.5 140
142.5 145 147.5 150 152.5 155 157.5 160 162.5 165 167.5 170
172.5 175 177.5 180
0 22.5 45 67.5 90 112.5 135 157.5 180 202.5 225 247.5
270 292.5 315 337.5 360
     178.6      183.5      194.0      207.9      220.3      233.6      245.3      258.0      272.3      284.5
     296.7      308.0      318.9      331.9      342.7      351.6      362.2      371.9      380.3      387.1
     396.3      402.8      407.4      412.6      418.5      421.8      422.8      424.4      425.2      426.7
     425.6      422.6      419.6      416.9      412.6      406.8      402.3      393.1      387.4      379.8
     370.0      361.1      352.2      341.4      329.4      323.4      327.0      333.2      342.4      354.0
     369.6      388.4      406.0      423.1      448.3      471.0      488.1      500.3      505.7      520.6
     545.8      566.6      581.8      591.0      564.2      528.5      490.2      446.1      404.2      361.1
     323.0      286.4      264.7
     178.6      187.1      197.0      208.5      221.2      232.5      243.0      254.7      266.7      277.4
     288.1      298.3      308.0      318.3      327.3      335.6      343.3      351.6      358.4      364.9
     369.2      374.7      380.3      384.1      385.8      388.0      390.9      391.4      391.2      389.9
     388.0      385.8      382.5      378.2      373.9      367.6      363.0      344.3      337.9      330.0
     323.2      314.8      305.0      295.4      288.3      292.4      301.6      311.0      323.4      341.6
     358.7      378.4      395.7      424.4      447.0      464.8      477.6      484.5      505.7      530.9
     552.7      568.3      580.7      561.4      533.0      500.0      461.8      423.7      386.9      349.5
     314.8      282.9      264.7
     178.6      188.4      195.7      204.4      211.7      219.8      228.5      236.1      242.8      249.4
     255.8      261.2      267.2      273.4      278.3      281.9      285.3      289.4      291.8      293.9
     294.3      295.6      297.8      298.0      296.4      295.8      296.2      294.3      291.5      288.8
     285.6      281.3      277.0      270.7      265.8      262.0      256.6      235.0      228.0      222.5
     215.8      208.7      205.5      212.6      224.1      237.7      256.1      276.1      296.4      319.1
     347.1      370.6      389.9      404.9      420.7      448.8      479.1      502.7      525.1      539.8
     533.3      514.4      495.1      473.5      450.0      423.3      397.2      370.3      345.7      320.2
     296.2      277.2      264.7
     178.6      187.1      190.3      193.6      197.6      200.6      203.0      205.2      206.0      208.7
     208.7      210.3      210.6      209.8      208.7      208.5      206.2      204.7      202.2      199.3
     196.8      193.0      188.9      184.8      179.0      174.9      171.1      166.2      161.1      155.1
     149.7      142.9      138.0      132.6      127.2      120.7      114.5       97.7       94.5       90.7
      94.2      107.4      128.6      153.8      182.7      205.2      222.8      243.6      269.3      296.9
     320.6      344.6      359.3      366.6      371.4      374.3      375.2      374.1      370.0      366.0
     359.3      351.9      343.5      335.1      326.2      318.1      309.5      299.2      290.0      281.0
     274.5      269.3      264.7
     178.6      183.8      182.8      181.8      180.4      178.4      174.9      172.5      168.8      165.7
     160.8      156.9      152.1      146.7      141.3      135.1      129.7      123.2      116.9      110.3
     103.0       96.8       88.6       82.4       74.0       67.4       60.1       53.6       45.3       38.7
      31.3       24.1       16.2        8.9        2.7        0.6        0.0        5.5       10.7       19.8
      30.5       41.4       53.3       64.9       75.7       86.6       98.1      110.5      122.9      134.7
     147.2      157.9      169.2      179.3      189.4      199.1      207.9      215.5      223.2      229.5
     235.5      240.7      245.4      248.8      251.8      255.0      257.9      260.2      261.5      262.8
     263.5      264.1      264.7
     178.6      176.5      169.2      163.0      157.6      156.2      167.5      183.3      186.3      188.4
     188.9      185.7      183.0      179.7      176.2      172.2      168.9      165.1      159.2      151.9
     142.9      128.1      112.3       97.5       83.4       70.1       58.4       47.3       38.1       30.8
      26.3       23.1       23.1       21.4       23.8       26.8       29.8       30.0       32.3       39.0
      48.5       60.1       72.3       86.9      102.3      118.3      134.1      152.9      169.2      186.3
     203.0      218.8      232.8      246.4      258.0      271.0      283.2      293.4      304.6      313.5
     321.6      328.1      330.5      327.5      320.0      311.9      304.6      295.6      288.8      281.3
     273.7      266.7      264.7
     178.6      169.8      159.7      171.1      197.6      205.2      206.0      206.8      207.1      211.4
     210.6      210.9      208.7      203.0      192.5      177.6      163.8      150.5      137.5      125.3
     113.7      103.7       93.1       85.5       77.2       70.4       64.2       61.2       58.8       57.7
      55.6       54.1       52.2       54.1       56.0       58.4       59.3       57.7       60.9       63.6
      67.6       75.0       84.5       95.6      106.9      120.0      132.4      145.9      158.7      173.0
     187.1      201.4      214.9      231.2      245.5      259.6      273.4      285.6      298.3      308.4
     317.2      325.4      333.2      340.8      348.2      354.0      354.9      344.8      324.5      302.4
     284.2      268.0      264.7
     178.6      164.9      169.4      201.9      210.9      212.8      214.4      220.3      223.9      225.5
     224.4      213.9      198.7      185.2      170.9      158.1      145.9      134.5      124.9      115.3
     106.3       98.6       89.9       84.5       78.5       76.8       74.0       73.6       72.3       70.4
      68.2       66.9       67.6       70.1       71.0       72.3       71.7       69.5       73.1       75.8
      79.1       81.7       89.0       96.9      108.0      118.5      130.5      142.1      154.0      167.0
     178.4      192.5      204.4      218.2      230.6      243.0      257.5      272.9      286.2      298.8
     311.4      321.6      331.3      336.5      344.1      351.2      356.5      358.4      349.5      318.1
     291.5      268.8      264.7
     178.6      161.1      181.1      204.1      212.6      214.9      220.9      225.2      226.3      226.9
     220.3      205.5      191.4      175.6      163.2      150.5      139.4      130.0      120.4      112.1
     103.7       96.1       88.5       84.2       80.2       78.7       77.7       75.3       73.6       71.7
      69.5       70.6       71.5       74.0       75.0       75.8       75.8       75.3       78.3       81.2
      85.0       87.9       91.8       99.6      110.2      120.4      131.1      141.6      153.8      165.1
     176.7      190.3      202.2      214.1      227.4      239.1      251.5      265.8      279.6      292.4
     306.1      316.7      327.3      337.1      342.0      349.5      355.5      360.0      357.0      332.2
     297.5      272.3      264.7
     178.6      164.9      169.4      201.9      210.9      212.8      214.4      220.3      223.9      225.5
     224.4      213.9      198.7      185.2      170.9      158.1      145.9      134.5      124.9      115.3
     106.3       98.6       89.9       84.5       78.5       76.8       74.0       73.6       72.3       70.4
      68.2       66.9       67.6       70.1       71.0       72.3       71.7       69.5       73.1       75.8
      79.1       81.7       89.0       96.9      108.0      118.5      130.5      142.1      154.0      167.0
     178.4      192.5      204.4      218.2      230.6      243.0      257.5      272.9      286.2      298.8
     311.4      321.6      331.3      336.5      344.1      351.2      356.5      358.4      349.5      318.1
     291.5      268.8      264.7
     178.6      169.8      159.7      171.1      197.6      205.2      206.0      206.8      207.1      211.4
     210.6      210.9      208.7      203.0      192.5      177.6      163.8      150.5      137.5      125.3
     113.7      103.7       93.1       85.5       77.2       70.4       64.2       61.2       58.8       57.7
      55.6       54.1       52.2       54.1       56.0       58.4       59.3       57.7       60.9       63.6
      67.6       75.0       84.5       95.6      106.9      120.0      132.4      145.9      158.7      173.0
     187.1      201.4      214.9      231.2      245.5      259.6      273.4      285.6      298.3      308.4
     317.2      325.4      333.2      340.8      348.2      354.0      354.9      344.8      324.5      302.4
     284.2      268.0      264.7
     178.6      176.5      169.2      163.0      157.6      156.2      167.5      183.3      186.3      188.4
     188.9      185.7      183.0      179.7      176.2      172.2      168.9      165.1      159.2      151.9
     142.9      128.1      112.3       97.5       83.4       70.1       58.4       47.3       38.1       30.8
      26.3       23.1       23.1       21.4       23.8       26.8       29.8       30.0       32.3       39.0
      48.5       60.1       72.3       86.9      102.3      118.3      134.1      152.9      169.2      186.3
     203.0      218.8      232.8      246.4      258.0      271.0      283.2      293.4      304.6      313.5
     321.6      328.1      330.5      327.5      320.0      311.9      304.6      295.6      288.8      281.3
     273.7      266.7      264.7
     178.6      183.8      182.8      181.8      180.4      178.4      174.9      172.5      168.8      165.7
     160.8      156.9      152.1      146.7      141.3      135.1      129.7      123.2      116.9      110.3
     103.0       96.8       88.6       82.4       74.0       67.4       60.1       53.6       45.3       38.7
      31.3       24.1       16.2        8.9        2.7        0.6        0.0        5.5       10.7       19.8
      30.5       41.4       53.3       64.9       75.7       86.6       98.1      110.5      122.9      134.7
     147.2      157.9      169.2      179.3      189.4      199.1      207.9      215.5      223.2      229.5
     235.5      240.7      245.4      248.8      251.8      255.0      257.9      260.2      261.5      262.8
     263.5      264.1      264.7
     178.6      187.1      190.3      193.6      197.6      200.6      203.0      205.2      206.0      208.7
     208.7      210.3      210.6      209.8      208.7      208.5      206.2      204.7      202.2      199.3
     196.8      193.0      188.9      184.8      179.0      174.9      171.1      166.2      161.1      155.1
     149.7      142.9      138.0      132.6      127.2      120.7      114.5       97.7       94.5       90.7
      94.2      107.4      128.6      153.8      182.7      205.2      222.8      243.6      269.3      296.9
     320.6      344.6      359.3      366.6      371.4      374.3      375.2      374.1      370.0      366.0
     359.3      351.9      343.5      335.1      326.2      318.1      309.5      299.2      290.0      281.0
     274.5      269.3      264.7
     178.6      188.4      195.7      204.4      211.7      219.8      228.5      236.1      242.8      249.4
     255.8      261.2      267.2      273.4      278.3      281.9      285.3      289.4      291.8      293.9
     294.3      295.6      297.8      298.0      296.4      295.8      296.2      294.3      291.5      288.8
     285.6      281.3      277.0      270.7      265.8      262.0      256.6      235.0      228.0      222.5
     215.8      208.7      205.5      212.6      224.1      237.7      256.1      276.1      296.4      319.1
     347.1      370.6      389.9      404.9      420.7      448.8      479.1      502.7      525.1      539.8
     533.3      514.4      495.1      473.5      450.0      423.3      397.2      370.3      345.7      320.2
     296.2      277.2      264.7
     178.6      187.1      197.0      208.5      221.2      232.5      243.0      254.7      266.7      277.4
     288.1      298.3      308.0      318.3      327.3      335.6      343.3      351.6      358.4      364.9
     369.2      374.7      380.3      384.1      385.8      388.0      390.9      391.4      391.2      389.9
     388.0      385.8      382.5      378.2      373.9      367.6      363.0      344.3      337.9      330.0
     323.2      314.8      305.0      295.4      288.3      292.4      301.6      311.0      323.4      341.6
     358.7      378.4      395.7      424.4      447.0      464.8      477.6      484.5      505.7      530.9
     552.7      568.3      580.7      561.4      533.0      500.0      461.8      423.7      386.9      349.5
     314.8      282.9      264.7
     178.6      183.5      194.0      207.9      220.3      233.6      245.3      258.0      272.3      284.5
     296.7      308.0      318.9      331.9      342.7      351.6      362.2      371.9      380.3      387.1
     396.3      402.8      407.4      412.6      418.5      421.8      422.8      424.4      425.2      426.7
     425.6      422.6      419.6      416.9      412.6      406.8      402.3      393.1      387.4      379.8
     370.0      361.1      352.2      341.4      329.4      323.4      327.0      333.2      342.4      354.0
     369.6      388.4      406.0      423.1      448.3      471.0      488.1      500.3      505.7      520.6
     545.8      566.6      581.8      591.0      564.2      528.5      490.2      446.1      404.2      361.1
     323.0      286.4      264.7
