IESNA:LM-63-1995
[TEST]    18651A
[MANUFAC]COOPER LIGHTING - SHAPER                             
[LUMCAT]658-CF2/26                                                                      
[LUMINAIRE]FLUORESCENT WALL MOUNT LUMINAIRE WITH WHITE INTERIOR AND CURVED WHITE PLASTIC LENS                               
[LAMP]TWO 26 WATT CPFL LAMPS. LUMEN RATING = 3600 LMS.                                
[OTHER]SIMULATED REPORT CREATED FROM TEST OF 13 WATT LAMPS                             
TILT=NONE
1
      3600
1
73
17
1
1
  0.00
  0.00
  0.00
1
1
    0.0000
0 2.5 5 7.5 10 12.5 15 17.5 20 22.5 25 27.5 30 32.5 35 37.5
40 42.5 45 47.5 50 52.5 55 57.5 60 62.5 65 67.5 70 72.5 75
77.5 80 82.5 85 87.5 90 92.5 95 97.5 100 102.5 105 107.5 110
112.5 115 117.5 120 122.5 125 127.5 130 132.5 135 137.5 140
142.5 145 147.5 150 152.5 155 157.5 160 162.5 165 167.5 170
172.5 175 177.5 180
0 22.5 45 67.5 90 112.5 135 157.5 180 202.5 225 247.5
270 292.5 315 337.5 360
       0.7        0.6        1.3        3.7        7.1       10.4       13.8       17.3       21.0       24.5
      28.0       31.6       35.1       38.8       42.3       45.9       49.3       52.7       55.8       59.0
      62.3       65.2       68.0       70.5       73.1       75.4       77.7       79.7       81.5       83.3
      84.7       85.9       87.0       87.7       88.3       88.9       89.1       90.5       93.2       96.3
     100.0      104.1      108.9      116.6      131.4      149.1      168.8      190.3      211.6      230.9
     246.4      261.1      274.6      287.5      298.5      307.3      314.7      319.3      319.8      317.4
     312.9      306.6      297.4      285.0      266.3      241.6      214.3      185.7      159.5      135.4
     117.1      106.1      105.8
       0.7        0.5        2.4        6.7       12.2       17.7       23.4       29.1       35.1       41.4
      47.2       53.4       59.3       65.4       71.3       77.0       82.5       88.2       93.5       98.9
     104.0      108.9      113.8      118.0      122.1      125.9      129.6      132.8      135.9      138.7
     140.9      142.8      144.4      145.6      146.4      147.3      147.6      148.0      148.8      149.5
     150.4      151.2      152.3      153.8      156.9      161.6      169.0      178.1      187.8      198.1
     208.1      221.8      236.9      253.2      268.9      284.2      298.9      310.4      319.2      322.6
     321.1      317.1      308.5      295.6      279.1      255.4      228.1      199.3      172.7      147.3
     127.1      113.0      105.8
       0.7        0.6        4.7       12.6       21.2       29.4       39.1       48.9       58.9       68.4
      77.5       87.1       96.5      105.8      115.1      124.2      132.8      141.8      150.2      158.1
     166.6      174.1      181.7      188.6      195.0      200.8      206.9      212.3      217.2      221.7
     225.5      228.5      230.8      231.9      233.2      234.6      235.7      235.8      236.0      236.0
     235.5      235.0      233.9      232.2      230.1      228.3      228.9      231.7      234.8      237.9
     241.7      247.2      252.3      258.7      266.2      274.6      283.9      293.2      302.8      311.1
     317.7      322.0      322.1      316.6      304.9      289.0      268.9      239.1      206.0      171.7
     143.3      120.2      105.8
       0.7        0.9        6.5       15.8       26.9       39.4       51.7       63.4       75.8       87.6
      99.4      111.8      123.8      135.9      147.6      159.5      170.7      182.1      192.8      203.1
     213.7      223.6      233.4      242.0      250.5      257.8      265.2      272.2      278.4      284.2
     289.0      293.2      296.4      298.9      300.7      302.6      303.5      303.5      303.0      302.1
     300.7      299.2      296.8      293.7      289.6      285.4      281.3      277.0      276.1      277.0
     277.9      279.2      281.3      284.4      289.2      293.9      299.5      305.0      311.5      318.2
     324.4      329.4      329.7      325.4      317.0      302.1      283.5      257.7      225.8      187.8
     152.3      123.1      105.8
       0.7        0.9        5.9       17.7       30.5       42.6       55.1       67.9       80.9       94.1
     106.6      120.0      132.8      146.1      158.8      171.5      183.6      195.7      207.6      218.7
     230.3      241.0      251.5      260.8      269.8      278.0      285.9      293.3      300.1      306.0
     310.9      315.2      318.5      321.1      323.0      324.7      325.6      325.2      324.4      323.2
     321.4      319.4      316.6      312.8      308.1      303.3      298.3      292.7      288.2      287.7
     287.5      287.5      288.0      289.4      292.5      296.8      301.3      305.6      310.0      314.7
     320.1      324.4      326.1      323.7      317.5      303.7      285.1      260.3      227.6      186.9
     149.5      120.6      105.8
       0.7        0.9        6.5       15.8       26.9       39.4       51.7       63.4       75.8       87.6
      99.4      111.8      123.8      135.9      147.6      159.5      170.7      182.1      192.8      203.1
     213.7      223.6      233.4      242.0      250.5      257.8      265.2      272.2      278.4      284.2
     289.0      293.2      296.4      298.9      300.7      302.6      303.5      303.5      303.0      302.1
     300.7      299.2      296.8      293.7      289.6      285.4      281.3      277.0      276.1      277.0
     277.9      279.2      281.3      284.4      289.2      293.9      299.5      305.0      311.5      318.2
     324.4      329.4      329.7      325.4      317.0      302.1      283.5      257.7      225.8      187.8
     152.3      123.1      105.8
       0.7        0.6        4.7       12.6       21.2       29.4       39.1       48.9       58.9       68.4
      77.5       87.1       96.5      105.8      115.1      124.2      132.8      141.8      150.2      158.1
     166.6      174.1      181.7      188.6      195.0      200.8      206.9      212.3      217.2      221.7
     225.5      228.5      230.8      231.9      233.2      234.6      235.7      235.8      236.0      236.0
     235.5      235.0      233.9      232.2      230.1      228.3      228.9      231.7      234.8      237.9
     241.7      247.2      252.3      258.7      266.2      274.6      283.9      293.2      302.8      311.1
     317.7      322.0      322.1      316.6      304.9      289.0      268.9      239.1      206.0      171.7
     143.3      120.2      105.8
       0.7        0.5        2.4        6.7       12.2       17.7       23.4       29.1       35.1       41.4
      47.2       53.4       59.3       65.4       71.3       77.0       82.5       88.2       93.5       98.9
     104.0      108.9      113.8      118.0      122.1      125.9      129.6      132.8      135.9      138.7
     140.9      142.8      144.4      145.6      146.4      147.3      147.6      148.0      148.8      149.5
     150.4      151.2      152.3      153.8      156.9      161.6      169.0      178.1      187.8      198.1
     208.1      221.8      236.9      253.2      268.9      284.2      298.9      310.4      319.2      322.6
     321.1      317.1      308.5      295.6      279.1      255.4      228.1      199.3      172.7      147.3
     127.1      113.0      105.8
       0.7        0.6        1.3        3.7        7.1       10.4       13.8       17.3       21.0       24.5
      28.0       31.6       35.1       38.8       42.3       45.9       49.3       52.7       55.8       59.0
      62.3       65.2       68.0       70.5       73.1       75.4       77.7       79.7       81.5       83.3
      84.7       85.9       87.0       87.7       88.3       88.9       89.1       90.5       93.2       96.3
     100.0      104.1      108.9      116.6      131.4      149.1      168.8      190.3      211.6      230.9
     246.4      261.1      274.6      287.5      298.5      307.3      314.7      319.3      319.8      317.4
     312.9      306.6      297.4      285.0      266.3      241.6      214.3      185.7      159.5      135.4
     117.1      106.1      105.8
       0.7        0.6        2.1        4.3        7.1        9.6       12.4       15.0       17.9       20.5
      23.4       26.2       29.1       32.0       34.8       37.5       40.4       43.0       45.7       48.4
      51.0       53.2       55.5       57.7       59.8       61.7       63.6       65.3       66.8       68.2
      69.6       71.1       72.8       75.1       77.3       79.7       82.1       85.6       91.1       99.6
     109.9      120.9      132.3      144.0      156.9      170.0      183.6      196.0      207.7      219.8
     230.5      240.6      249.9      257.7      263.7      267.7      270.1      271.5      272.0      271.8
     270.6      268.6      265.0      258.9      249.2      233.2      213.7      190.2      165.9      140.7
     119.9      106.6      105.8
       0.7        0.9        3.1        5.7        8.3       10.9       13.6       16.4       19.1       21.9
      24.6       27.4       30.3       33.0       35.9       38.7       41.4       44.2       46.6       49.3
      51.9       54.3       56.5       58.6       60.6       62.5       64.4       66.3       68.2       70.6
      73.4       76.3       79.2       82.3       85.5       88.8       92.3       96.6      101.1      106.1
     112.5      119.4      127.3      136.3      146.4      156.9      167.9      179.7      190.9      202.9
     215.0      227.6      240.0      251.1      259.6      265.5      269.6      271.7      271.5      269.3
     265.8      261.1      254.4      246.1      235.3      221.5      205.1      186.2      166.2      143.5
     122.6      107.5      105.8
       0.7        1.2        1.7        3.7        7.4       10.2       12.7       15.3       17.9       20.7
      23.9       27.7       31.5       35.6       39.6       43.5       47.2       50.8       54.1       57.2
      60.1       63.0       65.6       67.9       70.4       72.3       74.7       77.7       80.9       84.3
      87.5       91.0       94.1       97.5      101.1      104.7      108.3      112.8      117.6      123.0
     129.0      135.8      143.5      151.6      160.4      169.0      178.0      187.1      195.7      204.5
     213.5      222.9      232.2      241.7      250.1      257.7      264.4      269.6      273.9      276.5
     277.0      275.5      270.6      263.1      251.3      234.1      213.5      190.5      167.4      145.6
     125.5      109.9      105.8
       0.7        1.0        0.9        1.0        1.9        5.0       12.1       18.9       23.9       27.2
      30.1       33.7       37.7       42.0       46.5       51.0       55.0       58.9       62.5       66.1
      69.6       72.7       75.6       78.2       80.8       83.2       86.4       89.9       93.5       97.0
     100.4      103.9      107.3      110.8      114.4      118.0      121.9      126.4      131.4      136.4
     142.3      148.3      155.4      162.6      170.7      178.8      187.3      196.7      205.5      215.0
     224.5      235.1      244.9      254.9      264.3      273.2      281.6      289.4      296.3      301.3
     303.3      301.3      295.1      284.7      269.6      250.6      228.4      201.4      173.1      146.9
     127.1      112.0      105.8
       0.7        1.2        1.7        3.7        7.4       10.2       12.7       15.3       17.9       20.7
      23.9       27.7       31.5       35.6       39.6       43.5       47.2       50.8       54.1       57.2
      60.1       63.0       65.6       67.9       70.4       72.3       74.7       77.7       80.9       84.3
      87.5       91.0       94.1       97.5      101.1      104.7      108.3      112.8      117.6      123.0
     129.0      135.8      143.5      151.6      160.4      169.0      178.0      187.1      195.7      204.5
     213.5      222.9      232.2      241.7      250.1      257.7      264.4      269.6      273.9      276.5
     277.0      275.5      270.6      263.1      251.3      234.1      213.5      190.5      167.4      145.6
     125.5      109.9      105.8
       0.7        0.9        3.1        5.7        8.3       10.9       13.6       16.4       19.1       21.9
      24.6       27.4       30.3       33.0       35.9       38.7       41.4       44.2       46.6       49.3
      51.9       54.3       56.5       58.6       60.6       62.5       64.4       66.3       68.2       70.6
      73.4       76.3       79.2       82.3       85.5       88.8       92.3       96.6      101.1      106.1
     112.5      119.4      127.3      136.3      146.4      156.9      167.9      179.7      190.9      202.9
     215.0      227.6      240.0      251.1      259.6      265.5      269.6      271.7      271.5      269.3
     265.8      261.1      254.4      246.1      235.3      221.5      205.1      186.2      166.2      143.5
     122.6      107.5      105.8
       0.7        0.6        2.1        4.3        7.1        9.6       12.4       15.0       17.9       20.5
      23.4       26.2       29.1       32.0       34.8       37.5       40.4       43.0       45.7       48.4
      51.0       53.2       55.5       57.7       59.8       61.7       63.6       65.3       66.8       68.2
      69.6       71.1       72.8       75.1       77.3       79.7       82.1       85.6       91.1       99.6
     109.9      120.9      132.3      144.0      156.9      170.0      183.6      196.0      207.7      219.8
     230.5      240.6      249.9      257.7      263.7      267.7      270.1      271.5      272.0      271.8
     270.6      268.6      265.0      258.9      249.2      233.2      213.7      190.2      165.9      140.7
     119.9      106.6      105.8
       0.7        0.6        1.3        3.7        7.1       10.4       13.8       17.3       21.0       24.5
      28.0       31.6       35.1       38.8       42.3       45.9       49.3       52.7       55.8       59.0
      62.3       65.2       68.0       70.5       73.1       75.4       77.7       79.7       81.5       83.3
      84.7       85.9       87.0       87.7       88.3       88.9       89.1       90.5       93.2       96.3
     100.0      104.1      108.9      116.6      131.4      149.1      168.8      190.3      211.6      230.9
     246.4      261.1      274.6      287.5      298.5      307.3      314.7      319.3      319.8      317.4
     312.9      306.6      297.4      285.0      266.3      241.6      214.3      185.7      159.5      135.4
     117.1      106.1      105.8
