IESNA:LM-63-1995
[TEST]     18651
[MANUFAC]COOPER LIGHTING - SHAPER                             
[LUMCAT]658-CF2/13                                                                      
[LUMINAIRE]FLUORESCENT WALL MOUNT LUMINAIRE WITH WHITE INTERIOR AND CURVED WHITE PLASTIC LENS                               
[LAMP]TWO SYLVANIA 13 WATT CPFL LAMPS                                                 
[LAMPCAT]CF13DS/E830. LUMEN RATING = 1600 LMS.                                           
[OTHER]ONE UNIVERSAL CT213UNVSE BALLAST OPERATING AT 120 VAC AND 24 WATTS              
TILT=NONE
1
      1600
1
73
17
1
1
  0.00
  0.00
  0.00
1
1
   24.0000
0 2.5 5 7.5 10 12.5 15 17.5 20 22.5 25 27.5 30 32.5 35 37.5
40 42.5 45 47.5 50 52.5 55 57.5 60 62.5 65 67.5 70 72.5 75
77.5 80 82.5 85 87.5 90 92.5 95 97.5 100 102.5 105 107.5 110
112.5 115 117.5 120 122.5 125 127.5 130 132.5 135 137.5 140
142.5 145 147.5 150 152.5 155 157.5 160 162.5 165 167.5 170
172.5 175 177.5 180
0 22.5 45 67.5 90 112.5 135 157.5 180 202.5 225 247.5
270 292.5 315 337.5 360
       0.6        0.5        0.9        1.9        3.4        4.9        6.4        8.0        9.6       11.1
      12.7       14.3       15.9       17.5       19.1       20.7       22.2       23.7       25.1       26.5
      28.0       29.2       30.5       31.6       32.8       33.8       34.8       35.7       36.5       37.3
      37.9       38.5       38.9       39.2       39.5       39.8       39.9       40.5       41.7       43.1
      44.7       46.6       48.7       52.1       58.7       66.5       75.3       84.9       94.3      102.9
     109.8      116.3      122.3      128.1      132.9      136.9      140.2      142.2      142.4      141.3
     139.3      136.6      132.4      127.0      118.6      107.7       95.5       82.8       71.2       60.5
      52.3       47.4       47.3
       0.6        0.5        1.3        3.3        5.7        8.2       10.7       13.2       15.9       18.7
      21.3       24.0       26.6       29.4       32.0       34.5       36.9       39.5       41.8       44.2
      46.5       48.7       50.9       52.7       54.6       56.2       57.9       59.3       60.7       61.9
      62.9       63.8       64.4       65.0       65.4       65.7       65.9       66.0       66.4       66.7
      67.1       67.5       68.0       68.6       70.0       72.1       75.4       79.4       83.7       88.3
      92.8       98.9      105.6      112.8      119.8      126.6      133.1      138.2      142.2      143.7
     143.0      141.2      137.4      131.6      124.3      113.8      101.6       88.8       77.0       65.7
      56.8       50.5       47.3
       0.6        0.6        2.4        5.9        9.7       13.4       17.7       22.0       26.5       30.7
      34.7       39.0       43.1       47.3       51.4       55.5       59.3       63.3       67.0       70.6
      74.3       77.7       81.0       84.1       86.9       89.5       92.2       94.6       96.8       98.8
     100.5      101.9      102.9      103.3      103.9      104.6      105.0      105.1      105.1      105.1
     104.9      104.7      104.2      103.5      102.5      101.7      102.0      103.2      104.6      106.0
     107.7      110.1      112.4      115.3      118.6      122.3      126.4      130.6      134.9      138.5
     141.5      143.4      143.4      141.0      135.8      128.7      119.8      106.5       91.9       76.6
      64.0       53.7       47.3
       0.6        0.7        3.2        7.3       12.2       17.8       23.2       28.4       34.0       39.2
      44.4       50.0       55.3       60.7       65.9       71.2       76.1       81.2       86.0       90.5
      95.3       99.7      104.0      107.8      111.6      114.9      118.2      121.2      124.0      126.6
     128.7      130.6      132.0      133.1      133.9      134.8      135.2      135.2      134.9      134.6
     133.9      133.2      132.2      130.8      129.0      127.1      125.3      123.4      123.0      123.4
     123.8      124.4      125.3      126.7      128.8      130.9      133.4      135.8      138.7      141.7
     144.4      146.7      146.8      144.9      141.1      134.6      126.3      114.8      100.6       83.7
      68.0       55.0       47.3
       0.6        0.7        2.9        8.2       13.8       19.2       24.8       30.4       36.3       42.1
      47.7       53.6       59.3       65.2       70.9       76.5       81.9       87.2       92.5       97.5
     102.6      107.4      112.0      116.2      120.2      123.8      127.4      130.6      133.7      136.3
     138.5      140.4      141.8      143.0      143.8      144.6      145.0      144.8      144.4      143.9
     143.1      142.2      141.0      139.3      137.2      135.1      132.9      130.4      128.4      128.1
     128.0      128.0      128.3      128.9      130.3      132.2      134.2      136.1      138.1      140.1
     142.5      144.4      145.2      144.1      141.4      135.3      127.0      116.0      101.4       83.4
      66.7       53.9       47.3
       0.6        0.7        3.2        7.3       12.2       17.8       23.2       28.4       34.0       39.2
      44.4       50.0       55.3       60.7       65.9       71.2       76.1       81.2       86.0       90.5
      95.3       99.7      104.0      107.8      111.6      114.9      118.2      121.2      124.0      126.6
     128.7      130.6      132.0      133.1      133.9      134.8      135.2      135.2      134.9      134.6
     133.9      133.2      132.2      130.8      129.0      127.1      125.3      123.4      123.0      123.4
     123.8      124.4      125.3      126.7      128.8      130.9      133.4      135.8      138.7      141.7
     144.4      146.7      146.8      144.9      141.1      134.6      126.3      114.8      100.6       83.7
      68.0       55.0       47.3
       0.6        0.6        2.4        5.9        9.7       13.4       17.7       22.0       26.5       30.7
      34.7       39.0       43.1       47.3       51.4       55.5       59.3       63.3       67.0       70.6
      74.3       77.7       81.0       84.1       86.9       89.5       92.2       94.6       96.8       98.8
     100.5      101.9      102.9      103.3      103.9      104.6      105.0      105.1      105.1      105.1
     104.9      104.7      104.2      103.5      102.5      101.7      102.0      103.2      104.6      106.0
     107.7      110.1      112.4      115.3      118.6      122.3      126.4      130.6      134.9      138.5
     141.5      143.4      143.4      141.0      135.8      128.7      119.8      106.5       91.9       76.6
      64.0       53.7       47.3
       0.6        0.5        1.3        3.3        5.7        8.2       10.7       13.2       15.9       18.7
      21.3       24.0       26.6       29.4       32.0       34.5       36.9       39.5       41.8       44.2
      46.5       48.7       50.9       52.7       54.6       56.2       57.9       59.3       60.7       61.9
      62.9       63.8       64.4       65.0       65.4       65.7       65.9       66.0       66.4       66.7
      67.1       67.5       68.0       68.6       70.0       72.1       75.4       79.4       83.7       88.3
      92.8       98.9      105.6      112.8      119.8      126.6      133.1      138.2      142.2      143.7
     143.0      141.2      137.4      131.6      124.3      113.8      101.6       88.8       77.0       65.7
      56.8       50.5       47.3
       0.6        0.5        0.9        1.9        3.4        4.9        6.4        8.0        9.6       11.1
      12.7       14.3       15.9       17.5       19.1       20.7       22.2       23.7       25.1       26.5
      28.0       29.2       30.5       31.6       32.8       33.8       34.8       35.7       36.5       37.3
      37.9       38.5       38.9       39.2       39.5       39.8       39.9       40.5       41.7       43.1
      44.7       46.6       48.7       52.1       58.7       66.5       75.3       84.9       94.3      102.9
     109.8      116.3      122.3      128.1      132.9      136.9      140.2      142.2      142.4      141.3
     139.3      136.6      132.4      127.0      118.6      107.7       95.5       82.8       71.2       60.5
      52.3       47.4       47.3
       0.6        0.6        1.2        2.2        3.4        4.5        5.8        6.9        8.2        9.4
      10.7       11.9       13.2       14.5       15.7       17.0       18.2       19.4       20.6       21.8
      22.9       23.9       24.9       25.9       26.8       27.7       28.5       29.3       30.0       30.6
      31.2       31.9       32.6       33.6       34.7       35.7       36.8       38.3       40.8       44.5
      49.1       54.0       59.1       64.3       70.0       75.8       81.9       87.4       92.6       98.0
     102.7      107.2      111.4      114.8      117.5      119.3      120.3      120.9      121.2      121.1
     120.5      119.6      118.0      115.3      111.0      103.9       95.3       84.8       74.0       62.8
      53.6       47.7       47.3
       0.6        0.7        1.7        2.8        3.9        5.1        6.3        7.6        8.8       10.0
      11.2       12.4       13.7       15.0       16.2       17.5       18.7       19.9       21.0       22.2
      23.3       24.4       25.4       26.3       27.2       28.1       28.9       29.8       30.6       31.7
      32.9       34.2       35.5       36.9       38.3       39.8       41.3       43.2       45.2       47.4
      50.3       53.3       56.9       60.8       65.4       70.0       74.9       80.1       85.1       90.5
      95.8      101.4      106.9      111.9      115.7      118.3      120.1      121.0      120.9      120.0
     118.4      116.3      113.4      109.7      104.9       98.7       91.4       83.0       74.2       64.0
      54.8       48.0       47.3
       0.6        0.8        1.0        1.9        3.6        4.8        5.9        7.1        8.2        9.5
      10.9       12.6       14.3       16.1       17.9       19.6       21.3       22.9       24.3       25.7
      27.0       28.3       29.4       30.4       31.6       32.4       33.5       34.8       36.3       37.7
      39.2       40.7       42.1       43.6       45.2       46.8       48.4       50.4       52.6       54.9
      57.6       60.6       64.0       67.6       71.6       75.4       79.4       83.4       87.2       91.2
      95.1       99.3      103.5      107.7      111.5      114.8      117.8      120.1      122.0      123.1
     123.4      122.7      120.5      117.2      112.0      104.3       95.1       85.0       74.7       65.0
      56.1       49.1       47.3
       0.6        0.7        0.7        0.7        1.1        2.5        5.6        8.7       10.9       12.4
      13.7       15.3       17.0       18.9       20.9       22.9       24.7       26.5       28.1       29.7
      31.2       32.6       33.9       35.0       36.2       37.3       38.7       40.2       41.8       43.4
      44.9       46.4       48.0       49.5       51.1       52.7       54.5       56.5       58.7       60.9
      63.5       66.2       69.3       72.5       76.1       79.7       83.5       87.7       91.6       95.8
     100.0      104.8      109.1      113.6      117.7      121.7      125.4      128.9      132.0      134.2
     135.1      134.2      131.4      126.8      120.1      111.7      101.8       89.8       77.2       65.6
      56.8       50.0       47.3
       0.6        0.8        1.0        1.9        3.6        4.8        5.9        7.1        8.2        9.5
      10.9       12.6       14.3       16.1       17.9       19.6       21.3       22.9       24.3       25.7
      27.0       28.3       29.4       30.4       31.6       32.4       33.5       34.8       36.3       37.7
      39.2       40.7       42.1       43.6       45.2       46.8       48.4       50.4       52.6       54.9
      57.6       60.6       64.0       67.6       71.6       75.4       79.4       83.4       87.2       91.2
      95.1       99.3      103.5      107.7      111.5      114.8      117.8      120.1      122.0      123.1
     123.4      122.7      120.5      117.2      112.0      104.3       95.1       85.0       74.7       65.0
      56.1       49.1       47.3
       0.6        0.7        1.7        2.8        3.9        5.1        6.3        7.6        8.8       10.0
      11.2       12.4       13.7       15.0       16.2       17.5       18.7       19.9       21.0       22.2
      23.3       24.4       25.4       26.3       27.2       28.1       28.9       29.8       30.6       31.7
      32.9       34.2       35.5       36.9       38.3       39.8       41.3       43.2       45.2       47.4
      50.3       53.3       56.9       60.8       65.4       70.0       74.9       80.1       85.1       90.5
      95.8      101.4      106.9      111.9      115.7      118.3      120.1      121.0      120.9      120.0
     118.4      116.3      113.4      109.7      104.9       98.7       91.4       83.0       74.2       64.0
      54.8       48.0       47.3
       0.6        0.6        1.2        2.2        3.4        4.5        5.8        6.9        8.2        9.4
      10.7       11.9       13.2       14.5       15.7       17.0       18.2       19.4       20.6       21.8
      22.9       23.9       24.9       25.9       26.8       27.7       28.5       29.3       30.0       30.6
      31.2       31.9       32.6       33.6       34.7       35.7       36.8       38.3       40.8       44.5
      49.1       54.0       59.1       64.3       70.0       75.8       81.9       87.4       92.6       98.0
     102.7      107.2      111.4      114.8      117.5      119.3      120.3      120.9      121.2      121.1
     120.5      119.6      118.0      115.3      111.0      103.9       95.3       84.8       74.0       62.8
      53.6       47.7       47.3
       0.6        0.5        0.9        1.9        3.4        4.9        6.4        8.0        9.6       11.1
      12.7       14.3       15.9       17.5       19.1       20.7       22.2       23.7       25.1       26.5
      28.0       29.2       30.5       31.6       32.8       33.8       34.8       35.7       36.5       37.3
      37.9       38.5       38.9       39.2       39.5       39.8       39.9       40.5       41.7       43.1
      44.7       46.6       48.7       52.1       58.7       66.5       75.3       84.9       94.3      102.9
     109.8      116.3      122.3      128.1      132.9      136.9      140.2      142.2      142.4      141.3
     139.3      136.6      132.4      127.0      118.6      107.7       95.5       82.8       71.2       60.5
      52.3       47.4       47.3
