IESNA:LM-63-1995
[TEST]     19153
[MANUFAC]COOPER LIGHTING - SHAPER                                
[LUMCAT]604-36-F2/21                                                                    
[LUMINAIRE]INTERIOR WALL MOUNT LUMINAIRE WITH WHITE INTERIOR AND WHITE PLASTIC LENS                                      
[LAMP]TWO 21 WATT T5 LAMPS                                                            
[LAMPCAT]FP21/830. LUMEN RATING = 1900 LMS.                                              
[OTHER]ONE UNIVERSAL B228PUNV-C BALLAST OPERATING AT 120 VAC AND 43 WATTS              
TILT=NONE
2
      1900
1
73
17
1
1
  0.23
  2.33
  0.32
1
1
   43.0000
0 2.5 5 7.5 10 12.5 15 17.5 20 22.5 25 27.5 30 32.5 35 37.5
40 42.5 45 47.5 50 52.5 55 57.5 60 62.5 65 67.5 70 72.5 75
77.5 80 82.5 85 87.5 90 92.5 95 97.5 100 102.5 105 107.5 110
112.5 115 117.5 120 122.5 125 127.5 130 132.5 135 137.5 140
142.5 145 147.5 150 152.5 155 157.5 160 162.5 165 167.5 170
172.5 175 177.5 180
0 22.5 45 67.5 90 112.5 135 157.5 180 202.5 225 247.5
270 292.5 315 337.5 360
     216.1      213.6      211.1      208.7      206.2      203.7      201.2      198.8      196.3      193.8
     187.8      181.8      175.9      169.9      163.9      157.9      152.0      146.0      140.0      131.9
     123.7      115.6      107.5       99.3       91.2       83.1       74.9       66.8       59.6       52.5
      45.3       38.2       31.0       23.9       16.7        9.6        0.5        9.6       16.7       23.9
      31.0       38.2       45.3       52.5       59.6       66.8       74.9       83.1       91.2       99.3
     107.5      115.6      123.7      131.9      140.0      146.0      152.0      157.9      163.9      169.9
     175.9      181.8      187.8      193.8      196.3      198.8      201.2      203.7      206.2      208.7
     211.1      213.6      216.1
     216.1      218.0      219.7      220.8      221.3      221.6      221.8      221.8      221.6      221.3
     220.1      217.4      214.6      211.8      209.0      206.0      203.0      199.9      196.8      193.4
     188.5      183.6      178.6      173.4      168.2      162.8      157.4      151.8      146.7      142.4
     137.9      133.2      128.3      123.3      118.1      112.6      113.0      112.6      118.1      123.3
     128.3      133.2      137.9      142.4      146.7      151.8      157.4      162.8      168.2      173.4
     178.6      183.6      188.5      193.4      196.8      199.9      203.0      206.0      209.0      211.8
     214.6      217.4      220.1      221.3      221.6      221.8      221.8      221.6      221.3      220.8
     219.7      218.0      216.1
     216.1      222.2      227.0      230.9      234.6      237.8      240.9      243.9      246.7      249.3
     251.7      254.0      256.0      256.5      256.8      257.1      257.3      257.6      257.7      257.8
     257.6      257.4      256.8      254.9      253.0      251.0      249.0      246.9      244.6      242.1
     239.4      236.7      233.8      230.5      226.9      222.8      223.2      222.8      226.9      230.5
     233.8      236.7      239.4      242.1      244.6      246.9      249.0      251.0      253.0      254.9
     256.8      257.4      257.6      257.8      257.7      257.6      257.3      257.1      256.8      256.5
     256.0      254.0      251.7      249.3      246.7      243.9      240.9      237.8      234.6      230.9
     227.0      222.2      216.1
     216.1      225.5      232.7      239.5      245.6      251.8      257.9      263.7      269.3      274.9
     280.1      285.0      289.8      294.4      298.8      303.1      307.2      311.1      314.8      318.2
     320.0      321.5      323.0      324.4      325.6      326.8      328.0      329.1      329.5      328.3
     327.3      326.5      325.2      322.8      319.8      316.1      315.5      316.1      319.8      322.8
     325.2      326.5      327.3      328.3      329.5      329.1      328.0      326.8      325.6      324.4
     323.0      321.5      320.0      318.2      314.8      311.1      307.2      303.1      298.8      294.4
     289.8      285.0      280.1      274.9      269.3      263.7      257.9      251.8      245.6      239.5
     232.7      225.5      216.1
     216.1      227.5      236.3      245.1      253.0      261.6      269.7      277.5      285.6      293.5
     301.0      308.5      315.9      322.6      329.4      336.0      342.4      348.3      353.7      358.9
     363.7      368.0      372.0      375.5      378.8      381.9      384.0      385.7      386.9      387.9
     388.1      388.1      388.0      386.6      385.7      384.5      385.7      384.5      385.7      386.6
     388.0      388.1      388.1      387.9      386.9      385.7      384.0      381.9      378.8      375.5
     372.0      368.0      363.7      358.9      353.7      348.3      342.4      336.0      329.4      322.6
     315.9      308.5      301.0      293.5      285.6      277.5      269.7      261.6      253.0      245.1
     236.3      227.5      216.1
     216.1      225.5      232.7      239.5      245.6      251.8      257.9      263.7      269.3      274.9
     280.1      285.0      289.8      294.4      298.8      303.1      307.2      311.1      314.8      318.2
     320.0      321.5      323.0      324.4      325.6      326.8      328.0      329.1      329.5      328.3
     327.3      326.5      325.2      322.8      319.8      316.1      315.5      316.1      319.8      322.8
     325.2      326.5      327.3      328.3      329.5      329.1      328.0      326.8      325.6      324.4
     323.0      321.5      320.0      318.2      314.8      311.1      307.2      303.1      298.8      294.4
     289.8      285.0      280.1      274.9      269.3      263.7      257.9      251.8      245.6      239.5
     232.7      225.5      216.1
     216.1      222.2      227.0      230.9      234.6      237.8      240.9      243.9      246.7      249.3
     251.7      254.0      256.0      256.5      256.8      257.1      257.3      257.6      257.7      257.8
     257.6      257.4      256.8      254.9      253.0      251.0      249.0      246.9      244.6      242.1
     239.4      236.7      233.8      230.5      226.9      222.8      223.2      222.8      226.9      230.5
     233.8      236.7      239.4      242.1      244.6      246.9      249.0      251.0      253.0      254.9
     256.8      257.4      257.6      257.8      257.7      257.6      257.3      257.1      256.8      256.5
     256.0      254.0      251.7      249.3      246.7      243.9      240.9      237.8      234.6      230.9
     227.0      222.2      216.1
     216.1      218.0      219.7      220.8      221.3      221.6      221.8      221.8      221.6      221.3
     220.1      217.4      214.6      211.8      209.0      206.0      203.0      199.9      196.8      193.4
     188.5      183.6      178.6      173.4      168.2      162.8      157.4      151.8      146.7      142.4
     137.9      133.2      128.3      123.3      118.1      112.6      113.0      112.6      118.1      123.3
     128.3      133.2      137.9      142.4      146.7      151.8      157.4      162.8      168.2      173.4
     178.6      183.6      188.5      193.4      196.8      199.9      203.0      206.0      209.0      211.8
     214.6      217.4      220.1      221.3      221.6      221.8      221.8      221.6      221.3      220.8
     219.7      218.0      216.1
     216.1      213.6      211.1      208.7      206.2      203.7      201.2      198.8      196.3      193.8
     187.8      181.8      175.9      169.9      163.9      157.9      152.0      146.0      140.0      131.9
     123.7      115.6      107.5       99.3       91.2       83.1       74.9       66.8       59.6       52.5
      45.3       38.2       31.0       23.9       16.7        9.6        0.5        9.6       16.7       23.9
      31.0       38.2       45.3       52.5       59.6       66.8       74.9       83.1       91.2       99.3
     107.5      115.6      123.7      131.9      140.0      146.0      152.0      157.9      163.9      169.9
     175.9      181.8      187.8      193.8      196.3      198.8      201.2      203.7      206.2      208.7
     211.1      213.6      216.1
     216.1      211.6      207.1      202.3      197.2      192.3      187.5      182.9      178.5      174.4
     169.2      162.0      154.9      147.8      140.9      133.9      127.0      120.2      113.5      106.9
      99.0       91.3       83.8       76.3       68.9       61.6       54.4       47.4       41.2       36.4
      31.6       26.9       22.3       17.7       13.2        8.7        4.2        8.7       13.2       17.7
      22.3       26.9       31.6       36.4       41.2       47.4       54.4       61.6       68.9       76.3
      83.8       91.3       99.0      106.9      113.5      120.2      127.0      133.9      140.9      147.8
     154.9      162.0      169.2      174.4      178.5      182.9      187.5      192.3      197.2      202.3
     207.1      211.6      216.1
     216.1      210.3      203.4      195.9      188.6      181.7      175.3      169.4      163.6      158.0
     152.6      147.1      141.7      134.2      126.6      119.1      111.8      104.7       97.7       90.9
      84.3       78.0       71.8       65.1       58.7       52.5       46.6       40.9       35.5       30.2
      26.0       22.8       19.7       16.7       13.7       10.8        7.9       10.8       13.7       16.7
      19.7       22.8       26.0       30.2       35.5       40.9       46.6       52.5       58.7       65.1
      71.8       78.0       84.3       90.9       97.7      104.7      111.8      119.1      126.6      134.2
     141.7      147.1      152.6      158.0      163.6      169.4      175.3      181.7      188.6      195.9
     203.4      210.3      216.1
     216.1      209.8      201.2      192.3      183.8      176.0      168.5      161.6      155.1      148.3
     141.4      134.5      127.7      121.0      114.4      108.0      101.6       95.3       89.3       83.3
      76.3       69.8       63.5       57.5       51.9       46.6       41.7       37.2       32.8       28.5
      24.6       21.0       17.8       15.5       13.9       12.4       10.9       12.4       13.9       15.5
      17.8       21.0       24.6       28.5       32.8       37.2       41.7       46.6       51.9       57.5
      63.5       69.8       76.3       83.3       89.3       95.3      101.6      108.0      114.4      121.0
     127.7      134.5      141.4      148.3      155.1      161.6      168.5      176.0      183.8      192.3
     201.2      209.8      216.1
     216.1      210.3      201.5      192.5      183.7      175.9      167.9      161.6      154.8      147.5
     139.9      132.3      124.8      117.5      110.3      103.0       96.3       89.4       82.9       76.6
      70.3       64.5       58.6       53.1       47.8       42.9       38.3       33.9       29.8       26.0
      22.6       19.6       17.0       14.8       13.2       12.4       11.8       12.4       13.2       14.8
      17.0       19.6       22.6       26.0       29.8       33.9       38.3       42.9       47.8       53.1
      58.6       64.5       70.3       76.6       82.9       89.4       96.3      103.0      110.3      117.5
     124.8      132.3      139.9      147.5      154.8      161.6      167.9      175.9      183.7      192.5
     201.5      210.3      216.1
     216.1      209.8      201.2      192.3      183.8      176.0      168.5      161.6      155.1      148.3
     141.4      134.5      127.7      121.0      114.4      108.0      101.6       95.3       89.3       83.3
      76.3       69.8       63.5       57.5       51.9       46.6       41.7       37.2       32.8       28.5
      24.6       21.0       17.8       15.5       13.9       12.4       10.9       12.4       13.9       15.5
      17.8       21.0       24.6       28.5       32.8       37.2       41.7       46.6       51.9       57.5
      63.5       69.8       76.3       83.3       89.3       95.3      101.6      108.0      114.4      121.0
     127.7      134.5      141.4      148.3      155.1      161.6      168.5      176.0      183.8      192.3
     201.2      209.8      216.1
     216.1      210.3      203.4      195.9      188.6      181.7      175.3      169.4      163.6      158.0
     152.6      147.1      141.7      134.2      126.6      119.1      111.8      104.7       97.7       90.9
      84.3       78.0       71.8       65.1       58.7       52.5       46.6       40.9       35.5       30.2
      26.0       22.8       19.7       16.7       13.7       10.8        7.9       10.8       13.7       16.7
      19.7       22.8       26.0       30.2       35.5       40.9       46.6       52.5       58.7       65.1
      71.8       78.0       84.3       90.9       97.7      104.7      111.8      119.1      126.6      134.2
     141.7      147.1      152.6      158.0      163.6      169.4      175.3      181.7      188.6      195.9
     203.4      210.3      216.1
     216.1      211.6      207.1      202.3      197.2      192.3      187.5      182.9      178.5      174.4
     169.2      162.0      154.9      147.8      140.9      133.9      127.0      120.2      113.5      106.9
      99.0       91.3       83.8       76.3       68.9       61.6       54.4       47.4       41.2       36.4
      31.6       26.9       22.3       17.7       13.2        8.7        4.2        8.7       13.2       17.7
      22.3       26.9       31.6       36.4       41.2       47.4       54.4       61.6       68.9       76.3
      83.8       91.3       99.0      106.9      113.5      120.2      127.0      133.9      140.9      147.8
     154.9      162.0      169.2      174.4      178.5      182.9      187.5      192.3      197.2      202.3
     207.1      211.6      216.1
     216.1      213.6      211.1      208.7      206.2      203.7      201.2      198.8      196.3      193.8
     187.8      181.8      175.9      169.9      163.9      157.9      152.0      146.0      140.0      131.9
     123.7      115.6      107.5       99.3       91.2       83.1       74.9       66.8       59.6       52.5
      45.3       38.2       31.0       23.9       16.7        9.6        0.5        9.6       16.7       23.9
      31.0       38.2       45.3       52.5       59.6       66.8       74.9       83.1       91.2       99.3
     107.5      115.6      123.7      131.9      140.0      146.0      152.0      157.9      163.9      169.9
     175.9      181.8      187.8      193.8      196.3      198.8      201.2      203.7      206.2      208.7
     211.1      213.6      216.1
