IESNA:LM-63-1995
[TEST]    19153A
[MANUFAC]COOPER LIGHTING - SHAPER                                
[LUMCAT]604-36-F2/14                                                                    
[LUMINAIRE]INTERIOR WALL MOUNT LUMINAIRE WITH WHITE INTERIOR AND WHITE PLASTIC LENS                                      
[LAMP]TWO 14 WATT T5 LAMPS. LUMEN RATING = 1200 LMS.                                  
[OTHER]SIMULATED REPORT FROM TEST WITH 2 - 21 WATT LAMPS                               
TILT=NONE
2
      1200
1
73
17
1
1
  0.23
  1.35
  0.32
1
1
    0.0000
0 2.5 5 7.5 10 12.5 15 17.5 20 22.5 25 27.5 30 32.5 35 37.5
40 42.5 45 47.5 50 52.5 55 57.5 60 62.5 65 67.5 70 72.5 75
77.5 80 82.5 85 87.5 90 92.5 95 97.5 100 102.5 105 107.5 110
112.5 115 117.5 120 122.5 125 127.5 130 132.5 135 137.5 140
142.5 145 147.5 150 152.5 155 157.5 160 162.5 165 167.5 170
172.5 175 177.5 180
0 22.5 45 67.5 90 112.5 135 157.5 180 202.5 225 247.5
270 292.5 315 337.5 360
     136.8      135.2      133.6      132.1      130.5      128.9      127.3      125.8      124.2      122.7
     118.9      115.1      111.4      107.6      103.8      100.0       96.2       92.5       88.7       83.5
      78.4       73.2       68.1       62.9       57.8       52.7       47.5       42.4       37.9       33.4
      28.8       24.3       19.8       15.3       10.7        6.3        0.5        6.3       10.7       15.3
      19.8       24.3       28.8       33.4       37.9       42.4       47.5       52.7       57.8       62.9
      68.1       73.2       78.4       83.5       88.7       92.5       96.2      100.0      103.8      107.6
     111.4      115.1      118.9      122.7      124.2      125.8      127.3      128.9      130.5      132.1
     133.6      135.2      136.8
     136.8      138.0      139.0      139.7      140.0      140.2      140.4      140.4      140.2      140.0
     139.3      137.6      135.8      134.0      132.3      130.4      128.5      126.5      124.6      122.4
     119.3      116.2      113.1      109.8      106.5      103.1       99.7       96.1       92.9       90.2
      87.3       84.4       81.3       78.1       74.8       71.3       71.3       71.3       74.8       78.1
      81.3       84.4       87.3       90.2       92.9       96.1       99.7      103.1      106.5      109.8
     113.1      116.2      119.3      122.4      124.6      126.5      128.5      130.4      132.3      134.0
     135.8      137.6      139.3      140.0      140.2      140.4      140.4      140.2      140.0      139.7
     139.0      138.0      136.8
     136.8      140.6      143.6      146.1      148.5      150.5      152.4      154.3      156.1      157.7
     159.3      160.7      162.0      162.3      162.5      162.7      162.8      163.0      163.1      163.1
     163.0      162.9      162.5      161.3      160.1      158.8      157.6      156.2      154.8      153.2
     151.5      149.8      147.9      145.9      143.6      141.0      140.8      141.0      143.6      145.9
     147.9      149.8      151.5      153.2      154.8      156.2      157.6      158.8      160.1      161.3
     162.5      162.9      163.0      163.1      163.1      163.0      162.8      162.7      162.5      162.3
     162.0      160.7      159.3      157.7      156.1      154.3      152.4      150.5      148.5      146.1
     143.6      140.6      136.8
     136.8      142.7      147.3      151.5      155.4      159.3      163.2      166.8      170.4      173.9
     177.2      180.3      183.3      186.2      189.0      191.7      194.3      196.8      199.1      201.3
     202.4      203.4      204.3      205.2      206.0      206.7      207.5      208.2      208.4      207.7
     207.0      206.5      205.7      204.2      202.3      200.0      199.8      200.0      202.3      204.2
     205.7      206.5      207.0      207.7      208.4      208.2      207.5      206.7      206.0      205.2
     204.3      203.4      202.4      201.3      199.1      196.8      194.3      191.7      189.0      186.2
     183.3      180.3      177.2      173.9      170.4      166.8      163.2      159.3      155.4      151.5
     147.3      142.7      136.8
     136.8      144.0      149.5      155.1      160.1      165.5      170.6      175.6      180.7      185.7
     190.4      195.2      199.8      204.1      208.4      212.5      216.6      220.3      223.7      227.0
     230.0      232.8      235.3      237.5      239.6      241.5      242.9      243.9      244.7      245.3
     245.5      245.5      245.4      244.5      243.9      243.2      243.2      243.2      243.9      244.5
     245.4      245.5      245.5      245.3      244.7      243.9      242.9      241.5      239.6      237.5
     235.3      232.8      230.0      227.0      223.7      220.3      216.6      212.5      208.4      204.1
     199.8      195.2      190.4      185.7      180.7      175.6      170.6      165.5      160.1      155.1
     149.5      144.0      136.8
     136.8      142.7      147.3      151.5      155.4      159.3      163.2      166.8      170.4      173.9
     177.2      180.3      183.3      186.2      189.0      191.7      194.3      196.8      199.1      201.3
     202.4      203.4      204.3      205.2      206.0      206.7      207.5      208.2      208.4      207.7
     207.0      206.5      205.7      204.2      202.3      200.0      199.8      200.0      202.3      204.2
     205.7      206.5      207.0      207.7      208.4      208.2      207.5      206.7      206.0      205.2
     204.3      203.4      202.4      201.3      199.1      196.8      194.3      191.7      189.0      186.2
     183.3      180.3      177.2      173.9      170.4      166.8      163.2      159.3      155.4      151.5
     147.3      142.7      136.8
     136.8      140.6      143.6      146.1      148.5      150.5      152.4      154.3      156.1      157.7
     159.3      160.7      162.0      162.3      162.5      162.7      162.8      163.0      163.1      163.1
     163.0      162.9      162.5      161.3      160.1      158.8      157.6      156.2      154.8      153.2
     151.5      149.8      147.9      145.9      143.6      141.0      140.8      141.0      143.6      145.9
     147.9      149.8      151.5      153.2      154.8      156.2      157.6      158.8      160.1      161.3
     162.5      162.9      163.0      163.1      163.1      163.0      162.8      162.7      162.5      162.3
     162.0      160.7      159.3      157.7      156.1      154.3      152.4      150.5      148.5      146.1
     143.6      140.6      136.8
     136.8      138.0      139.0      139.7      140.0      140.2      140.4      140.4      140.2      140.0
     139.3      137.6      135.8      134.0      132.3      130.4      128.5      126.5      124.6      122.4
     119.3      116.2      113.1      109.8      106.5      103.1       99.7       96.1       92.9       90.2
      87.3       84.4       81.3       78.1       74.8       71.3       71.3       71.3       74.8       78.1
      81.3       84.4       87.3       90.2       92.9       96.1       99.7      103.1      106.5      109.8
     113.1      116.2      119.3      122.4      124.6      126.5      128.5      130.4      132.3      134.0
     135.8      137.6      139.3      140.0      140.2      140.4      140.4      140.2      140.0      139.7
     139.0      138.0      136.8
     136.8      135.2      133.6      132.1      130.5      128.9      127.3      125.8      124.2      122.7
     118.9      115.1      111.4      107.6      103.8      100.0       96.2       92.5       88.7       83.5
      78.4       73.2       68.1       62.9       57.8       52.7       47.5       42.4       37.9       33.4
      28.8       24.3       19.8       15.3       10.7        6.3        0.5        6.3       10.7       15.3
      19.8       24.3       28.8       33.4       37.9       42.4       47.5       52.7       57.8       62.9
      68.1       73.2       78.4       83.5       88.7       92.5       96.2      100.0      103.8      107.6
     111.4      115.1      118.9      122.7      124.2      125.8      127.3      128.9      130.5      132.1
     133.6      135.2      136.8
     136.8      133.9      131.1      128.0      124.8      121.7      118.7      115.8      113.0      110.4
     107.1      102.6       98.1       93.6       89.2       84.8       80.4       76.2       71.9       67.7
      62.8       57.9       53.1       48.4       43.7       39.1       34.6       30.1       26.2       23.2
      20.2       17.2       14.3       11.4        8.5        5.7        2.8        5.7        8.5       11.4
      14.3       17.2       20.2       23.2       26.2       30.1       34.6       39.1       43.7       48.4
      53.1       57.9       62.8       67.7       71.9       76.2       80.4       84.8       89.2       93.6
      98.1      102.6      107.1      110.4      113.0      115.8      118.7      121.7      124.8      128.0
     131.1      133.9      136.8
     136.8      133.1      128.7      124.0      119.4      115.0      111.0      107.2      103.6      100.0
      96.6       93.2       89.7       85.0       80.2       75.5       70.8       66.4       61.9       57.6
      53.5       49.5       45.6       41.3       37.3       33.4       29.6       26.0       22.6       19.3
      16.6       14.6       12.6       10.7        8.8        7.0        5.2        7.0        8.8       10.7
      12.6       14.6       16.6       19.3       22.6       26.0       29.6       33.4       37.3       41.3
      45.6       49.5       53.5       57.6       61.9       66.4       70.8       75.5       80.2       85.0
      89.7       93.2       96.6      100.0      103.6      107.2      111.0      115.0      119.4      124.0
     128.7      133.1      136.8
     136.8      132.8      127.3      121.7      116.3      111.4      106.7      102.3       98.2       93.9
      89.5       85.2       80.9       76.7       72.5       68.4       64.4       60.4       56.6       52.8
      48.4       44.3       40.3       36.5       33.0       29.6       26.5       23.7       20.9       18.2
      15.7       13.5       11.4       10.0        9.0        8.0        7.1        8.0        9.0       10.0
      11.4       13.5       15.7       18.2       20.9       23.7       26.5       29.6       33.0       36.5
      40.3       44.3       48.4       52.8       56.6       60.4       64.4       68.4       72.5       76.7
      80.9       85.2       89.5       93.9       98.2      102.3      106.7      111.4      116.3      121.7
     127.3      132.8      136.8
     136.8      133.1      127.5      121.8      116.3      111.4      106.3      102.3       98.0       93.4
      88.6       83.8       79.1       74.4       69.9       65.3       61.0       56.7       52.6       48.6
      44.6       40.9       37.2       33.7       30.4       27.3       24.4       21.6       19.0       16.6
      14.5       12.6       10.9        9.5        8.5        8.0        7.6        8.0        8.5        9.5
      10.9       12.6       14.5       16.6       19.0       21.6       24.4       27.3       30.4       33.7
      37.2       40.9       44.6       48.6       52.6       56.7       61.0       65.3       69.9       74.4
      79.1       83.8       88.6       93.4       98.0      102.3      106.3      111.4      116.3      121.8
     127.5      133.1      136.8
     136.8      132.8      127.3      121.7      116.3      111.4      106.7      102.3       98.2       93.9
      89.5       85.2       80.9       76.7       72.5       68.4       64.4       60.4       56.6       52.8
      48.4       44.3       40.3       36.5       33.0       29.6       26.5       23.7       20.9       18.2
      15.7       13.5       11.4       10.0        9.0        8.0        7.1        8.0        9.0       10.0
      11.4       13.5       15.7       18.2       20.9       23.7       26.5       29.6       33.0       36.5
      40.3       44.3       48.4       52.8       56.6       60.4       64.4       68.4       72.5       76.7
      80.9       85.2       89.5       93.9       98.2      102.3      106.7      111.4      116.3      121.7
     127.3      132.8      136.8
     136.8      133.1      128.7      124.0      119.4      115.0      111.0      107.2      103.6      100.0
      96.6       93.2       89.7       85.0       80.2       75.5       70.8       66.4       61.9       57.6
      53.5       49.5       45.6       41.3       37.3       33.4       29.6       26.0       22.6       19.3
      16.6       14.6       12.6       10.7        8.8        7.0        5.2        7.0        8.8       10.7
      12.6       14.6       16.6       19.3       22.6       26.0       29.6       33.4       37.3       41.3
      45.6       49.5       53.5       57.6       61.9       66.4       70.8       75.5       80.2       85.0
      89.7       93.2       96.6      100.0      103.6      107.2      111.0      115.0      119.4      124.0
     128.7      133.1      136.8
     136.8      133.9      131.1      128.0      124.8      121.7      118.7      115.8      113.0      110.4
     107.1      102.6       98.1       93.6       89.2       84.8       80.4       76.2       71.9       67.7
      62.8       57.9       53.1       48.4       43.7       39.1       34.6       30.1       26.2       23.2
      20.2       17.2       14.3       11.4        8.5        5.7        2.8        5.7        8.5       11.4
      14.3       17.2       20.2       23.2       26.2       30.1       34.6       39.1       43.7       48.4
      53.1       57.9       62.8       67.7       71.9       76.2       80.4       84.8       89.2       93.6
      98.1      102.6      107.1      110.4      113.0      115.8      118.7      121.7      124.8      128.0
     131.1      133.9      136.8
     136.8      135.2      133.6      132.1      130.5      128.9      127.3      125.8      124.2      122.7
     118.9      115.1      111.4      107.6      103.8      100.0       96.2       92.5       88.7       83.5
      78.4       73.2       68.1       62.9       57.8       52.7       47.5       42.4       37.9       33.4
      28.8       24.3       19.8       15.3       10.7        6.3        0.5        6.3       10.7       15.3
      19.8       24.3       28.8       33.4       37.9       42.4       47.5       52.7       57.8       62.9
      68.1       73.2       78.4       83.5       88.7       92.5       96.2      100.0      103.8      107.6
     111.4      115.1      118.9      122.7      124.2      125.8      127.3      128.9      130.5      132.1
     133.6      135.2      136.8
