IESNA:LM-63-2002
[TEST]253P176
[TESTLAB]METALUX LABORITORIES
[ISSUEDATE]08/01/07
[MANUFAC]COOPER LIGHTING - SHAPER
[LUMCAT]1250-XX-26-CFL/3/27-T5C/1/22
[LUMINAIRE]SHAPER 26 INCH 1250 SERIES DIRECT/INDIRECT INDOOR PENDANT FIXTURE
[MORE]WITH SHALLOW BOWL
[LAMP]ONE - TL5C22 @ 1800 LUMENS AND THREE - FT24DL @ 1800 LUMENS 
[MORE]ONE 22W T5 CIRCLINE AND THREE 24W GX10 T4 COMPACT FLUORESCENT LAMPS
TILT=NONE
4 1800 1 73 25 1 1 -2.166667 -2.166667 0.000000 
1.000 1 24
0 2.5 5 7.5 10 12.5 15 17.5 20 22.5 25 27.5 30 32.5 35 37.5 40 42.5 45 47.5 50
52.5 55 57.5 60 62.5 65 67.5 70 72.5 75 77.5 80 82.5 85 87.5 90 92.5 95 97.5 100 102.5
105 107.5 110 112.5 115 117.5 120 122.5 125 127.5 130 132.5 135 137.5 140 142.5 145
147.5 150 152.5 155 157.5 160 162.5 165 167.5 170 172.5 175 177.5 180
0 20 30 40 60 80 90 100 120 140 150 160 180 200 210 220 240 260 270 280 300 320 330
340 360
264 264 263 262 260 257 254 251 246 242 236 230 224 217 210 203 195 187 178 169 160
150 141 131 121 112 102 93 84 75 67 59 51 44 38 32 3 14 58 145 250 369 469 565 634
696 775 863 942 1023 1087 1137 1171 1213 1258 1294 1323 1360 1410 1437 1444 1429 1393
1347 1272 1181 1085 1021 958 890 825 771 750
264 264 263 262 260 257 254 251 246 242 236 230 224 217 210 203 195 187 178 169 160
150 141 131 121 112 102 93 84 75 67 59 51 44 38 32 0 7 32 85 159 252 341 430 509 592
681 745 792 864 952 1033 1104 1188 1249 1285 1304 1321 1338 1344 1336 1323 1323 1286
1233 1142 1073 1013 949 883 826 774 750
264 264 263 262 260 257 254 251 246 242 236 230 224 217 210 203 195 187 178 169 160
150 141 131 121 112 102 93 84 75 67 59 51 44 38 32 0 4 20 68 131 200 283 368 453 542
640 737 825 875 927 994 1081 1161 1230 1289 1328 1337 1340 1332 1317 1303 1269 1241
1191 1116 1067 1008 948 884 828 776 750
264 264 263 262 260 257 254 251 246 242 236 230 224 217 210 203 195 187 178 169 160
150 141 131 121 112 102 93 84 75 67 59 51 44 38 32 1 11 38 90 156 232 314 412 514
616 724 844 947 989 1034 1094 1164 1236 1306 1365 1406 1411 1390 1366 1347 1308 1260
1211 1159 1119 1072 1010 946 883 826 775 750
264 264 263 262 260 257 254 251 246 242 236 230 224 217 210 203 195 187 178 169 160
150 141 131 121 112 102 93 84 75 67 59 51 44 38 32 3 12 46 101 160 231 326 448 582
710 828 955 1072 1165 1226 1284 1333 1393 1440 1480 1496 1489 1445 1381 1320 1284
1253 1207 1176 1135 1081 1017 953 887 829 778 750
264 264 263 262 260 257 254 251 246 242 236 230 224 217 210 203 195 187 178 169 160
150 141 131 121 112 102 93 84 75 67 59 51 44 38 32 1 8 33 83 143 219 303 401 503 599
694 805 910 978 1011 1067 1142 1220 1287 1340 1378 1388 1366 1342 1325 1292 1249 1191
1147 1109 1064 1005 942 881 827 776 750
264 264 263 262 260 257 254 251 246 242 236 230 224 217 210 203 195 187 178 169 160
150 141 131 121 112 102 93 84 75 67 59 51 44 38 32 0 7 30 79 131 203 290 389 481 562
662 748 828 889 954 1009 1095 1179 1240 1286 1314 1319 1325 1324 1309 1294 1257 1227
1172 1106 1056 1000 939 879 826 777 750
264 264 263 262 260 257 254 251 246 242 236 230 224 217 210 203 195 187 178 169 160
150 141 131 121 112 102 93 84 75 67 59 51 44 38 32 0 11 49 111 180 273 382 477 555
644 723 791 850 933 1026 1117 1182 1254 1303 1329 1345 1362 1381 1387 1374 1345 1336
1293 1229 1137 1067 1006 942 878 825 775 750
264 264 263 262 260 257 254 251 246 242 236 230 224 217 210 203 195 187 178 169 160
150 141 131 121 112 102 93 84 75 67 59 51 44 38 32 3 14 58 145 250 369 469 565 634
696 775 863 942 1023 1087 1137 1171 1213 1258 1294 1323 1360 1410 1437 1444 1429 1393
1347 1272 1181 1085 1021 958 890 825 771 750
264 264 263 262 260 257 254 251 246 242 236 230 224 217 210 203 195 187 178 169 160
150 141 131 121 112 102 93 84 75 67 59 51 44 38 32 0 7 32 85 159 252 341 430 509 592
681 745 792 864 952 1033 1104 1188 1249 1285 1304 1321 1338 1344 1336 1323 1323 1286
1233 1142 1073 1013 949 883 826 774 750
264 264 263 262 260 257 254 251 246 242 236 230 224 217 210 203 195 187 178 169 160
150 141 131 121 112 102 93 84 75 67 59 51 44 38 32 0 4 20 68 131 200 283 368 453 542
640 737 825 875 927 994 1081 1161 1230 1289 1328 1337 1340 1332 1317 1303 1269 1241
1191 1116 1067 1008 948 884 828 776 750
264 264 263 262 260 257 254 251 246 242 236 230 224 217 210 203 195 187 178 169 160
150 141 131 121 112 102 93 84 75 67 59 51 44 38 32 1 11 38 90 156 232 314 412 514
616 724 844 947 989 1034 1094 1164 1236 1306 1365 1406 1411 1390 1366 1347 1308 1260
1211 1159 1119 1072 1010 946 883 826 775 750
264 264 263 262 260 257 254 251 246 242 236 230 224 217 210 203 195 187 178 169 160
150 141 131 121 112 102 93 84 75 67 59 51 44 38 32 3 12 46 101 160 231 326 448 582
710 828 955 1072 1165 1226 1284 1333 1393 1440 1480 1496 1489 1445 1381 1320 1284
1253 1207 1176 1135 1081 1017 953 887 829 778 750
264 264 263 262 260 257 254 251 246 242 236 230 224 217 210 203 195 187 178 169 160
150 141 131 121 112 102 93 84 75 67 59 51 44 38 32 1 8 33 83 143 219 303 401 503 599
694 805 910 978 1011 1067 1142 1220 1287 1340 1378 1388 1366 1342 1325 1292 1249 1191
1147 1109 1064 1005 942 881 827 776 750
264 264 263 262 260 257 254 251 246 242 236 230 224 217 210 203 195 187 178 169 160
150 141 131 121 112 102 93 84 75 67 59 51 44 38 32 0 7 30 79 131 203 290 389 481 562
662 748 828 889 954 1009 1095 1179 1240 1286 1314 1319 1325 1324 1309 1294 1257 1227
1172 1106 1056 1000 939 879 826 777 750
264 264 263 262 260 257 254 251 246 242 236 230 224 217 210 203 195 187 178 169 160
150 141 131 121 112 102 93 84 75 67 59 51 44 38 32 0 11 49 111 180 273 382 477 555
644 723 791 850 933 1026 1117 1182 1254 1303 1329 1345 1362 1381 1387 1374 1345 1336
1293 1229 1137 1067 1006 942 878 825 775 750
264 264 263 262 260 257 254 251 246 242 236 230 224 217 210 203 195 187 178 169 160
150 141 131 121 112 102 93 84 75 67 59 51 44 38 32 3 14 58 145 250 369 469 565 634
696 775 863 942 1023 1087 1137 1171 1213 1258 1294 1323 1360 1410 1437 1444 1429 1393
1347 1272 1181 1085 1021 958 890 825 771 750
264 264 263 262 260 257 254 251 246 242 236 230 224 217 210 203 195 187 178 169 160
150 141 131 121 112 102 93 84 75 67 59 51 44 38 32 0 7 32 85 159 252 341 430 509 592
681 745 792 864 952 1033 1104 1188 1249 1285 1304 1321 1338 1344 1336 1323 1323 1286
1233 1142 1073 1013 949 883 826 774 750
264 264 263 262 260 257 254 251 246 242 236 230 224 217 210 203 195 187 178 169 160
150 141 131 121 112 102 93 84 75 67 59 51 44 38 32 0 4 20 68 131 200 283 368 453 542
640 737 825 875 927 994 1081 1161 1230 1289 1328 1337 1340 1332 1317 1303 1269 1241
1191 1116 1067 1008 948 884 828 776 750
264 264 263 262 260 257 254 251 246 242 236 230 224 217 210 203 195 187 178 169 160
150 141 131 121 112 102 93 84 75 67 59 51 44 38 32 1 11 38 90 156 232 314 412 514
616 724 844 947 989 1034 1094 1164 1236 1306 1365 1406 1411 1390 1366 1347 1308 1260
1211 1159 1119 1072 1010 946 883 826 775 750
264 264 263 262 260 257 254 251 246 242 236 230 224 217 210 203 195 187 178 169 160
150 141 131 121 112 102 93 84 75 67 59 51 44 38 32 3 12 46 101 160 231 326 448 582
710 828 955 1072 1165 1226 1284 1333 1393 1440 1480 1496 1489 1445 1381 1320 1284
1253 1207 1176 1135 1081 1017 953 887 829 778 750
264 264 263 262 260 257 254 251 246 242 236 230 224 217 210 203 195 187 178 169 160
150 141 131 121 112 102 93 84 75 67 59 51 44 38 32 1 8 33 83 143 219 303 401 503 599
694 805 910 978 1011 1067 1142 1220 1287 1340 1378 1388 1366 1342 1325 1292 1249 1191
1147 1109 1064 1005 942 881 827 776 750
264 264 263 262 260 257 254 251 246 242 236 230 224 217 210 203 195 187 178 169 160
150 141 131 121 112 102 93 84 75 67 59 51 44 38 32 0 7 30 79 131 203 290 389 481 562
662 748 828 889 954 1009 1095 1179 1240 1286 1314 1319 1325 1324 1309 1294 1257 1227
1172 1106 1056 1000 939 879 826 777 750
264 264 263 262 260 257 254 251 246 242 236 230 224 217 210 203 195 187 178 169 160
150 141 131 121 112 102 93 84 75 67 59 51 44 38 32 0 11 49 111 180 273 382 477 555
644 723 791 850 933 1026 1117 1182 1254 1303 1329 1345 1362 1381 1387 1374 1345 1336
1293 1229 1137 1067 1006 942 878 825 775 750
264 264 263 262 260 257 254 251 246 242 236 230 224 217 210 203 195 187 178 169 160
150 141 131 121 112 102 93 84 75 67 59 51 44 38 32 3 14 58 145 250 369 469 565 634
696 775 863 942 1023 1087 1137 1171 1213 1258 1294 1323 1360 1410 1437 1444 1429 1393
1347 1272 1181 1085 1021 958 890 825 771 750
