IESNA:LM-63-2002
[TEST]253p177
[TESTLAB]METALUX LABORITORIES
[ISSUEDATE]08/01/07
[MANUFAC]COOPER LIGHTING - SHAPER
[LUMCAT]1250-XX-26-CFL/3/32-T5C/1/22W
[LUMINAIRE]SHAPER 26 INCH 1250 SERIES DIRECT/INDIRECT INDOOR PENDANT FIXTURE 
[MORE]WITH SHALLOW DIFFUSING BOWL
[LAMP]ONE - TL5C22/830 @ 1800 LUMENS AND THREE CF32DT/E/IN841 - 2400 LUMENS  
[MORE]ONE 22W T5 CIRCLINE AND THREE 24W GX10 T4
[MORE]COMPACT FLUORESCENT LAMPS
[OTHER]THIS FILE WAS PRORATED FROM TEST NO: 253p177
TILT=NONE
1 11400 1 73 25 1 1 -2.166667 -2.166667 0.1
1 1 94
0 2.5 5 7.5 10 12.5 15 17.5 20 22.5
25 27.5 30 32.5 35 37.5 40 42.5 45 47.5
50 52.5 55 57.5 60 62.5 65 67.5 70 72.5
75 77.5 80 82.5 85 87.5 90 92.5 95 97.5
100 102.5 105 107.5 110 112.5 115 117.5 120 122.5
125 127.5 130 132.5 135 137.5 140 142.5 145 147.5
150 152.5 155 157.5 160 162.5 165 167.5 170 172.5
175 177.5 180
0 20 30 40 60 80 90 100 120 140
150 160 180 200 210 220 240 260 270 280
300 320 330 340 360
264 264 263 262 260 257 254 251 246 242
236 230 224 217 210 203 195 187 178 169
160 150 141 131 121 112 102 93 84 75
67 59 51 44 38 32 7 84.8 196.5 359.2
471.8 567 648.8 703.5 740.2 774.8 798 822.8 867.8 940.5
1002 1055.2 1104 1150.5 1194.8 1238.2 1279.5 1296 1314.8 1324.5
1357.5 1372.5 1367.2 1346.2 1311 1266.8 1218.8 1160.2 1096.5 1039.5
973.5 916.5 852.8
264 264 263 262 260 257 254 251 246 242
236 230 224 217 210 203 195 187 178 169
160 150 141 131 121 112 102 93 84 75
67 59 51 44 38 32 14 100.5 249 412.5
522.8 618 672 712.5 751.5 793.5 850.5 909.8 969 1036.5
1125 1190.2 1247.2 1300.5 1356.8 1402.5 1435.5 1471.5 1495.5 1500.8
1498.5 1504.5 1491.8 1468.5 1423.5 1351.5 1283.2 1207.5 1133.2 1064.2
997.5 937.5 852.8
264 264 263 262 260 257 254 251 246 242
236 230 224 217 210 203 195 187 178 169
160 150 141 131 121 112 102 93 84 75
67 59 51 44 38 32 33 132.8 277.5 449.2
566.2 630.8 678 720 784.5 864 936 995.2 1056 1131.8
1212.8 1291.5 1347.8 1383.8 1435.5 1479.8 1515 1542.8 1555.5 1549.5
1537.5 1545 1539 1513.5 1465.5 1388.2 1311 1225.5 1132.5 1056.8
992.2 939 852.8
264 264 263 262 260 257 254 251 246 242
236 230 224 217 210 203 195 187 178 169
160 150 141 131 121 112 102 93 84 75
67 59 51 44 38 32 40 150.8 287.2 489.8
616.5 654.8 667.5 714.8 795.8 891 981.8 1070.2 1164 1267.5
1368.8 1446 1488.8 1515 1554 1551 1563 1577.2 1590 1574.2
1556.2 1573.5 1578.8 1538.2 1495.5 1415.2 1329.8 1233.8 1130.2 1055.2
988.5 933 852.8
264 264 263 262 260 257 254 251 246 242
236 230 224 217 210 203 195 187 178 169
160 150 141 131 121 112 102 93 84 75
67 59 51 44 38 32 55 160.5 452.2 621
776.2 876.8 905.2 926.2 984.8 1063.5 1167 1266.8 1340.2 1413.8
1481.2 1537.5 1584.8 1635 1716.8 1770 1752.8 1661.2 1563 1472.2
1490.2 1498.5 1487.2 1485.8 1461.8 1394.2 1311 1188 1091.2 1033.5
966 907.5 852.8
264 264 263 262 260 257 254 251 246 242
236 230 224 217 210 203 195 187 178 169
160 150 141 131 121 112 102 93 84 75
67 59 51 44 38 32 33 179.2 368.2 507.8
590.2 642.8 690.8 768.8 863.2 981 1076.2 1113 1149.8 1200
1291.5 1371.8 1431 1494.8 1563.8 1617 1664.2 1653 1593 1536
1517.2 1500.8 1509 1468.5 1416 1341 1269.8 1179.8 1104.8 1038.8
970.5 900.8 852.8
264 264 263 262 260 257 254 251 246 242
236 230 224 217 210 203 195 187 178 169
160 150 141 131 121 112 102 93 84 75
67 59 51 44 38 32 25 126 274.5 429
541.5 609 672.8 741 804 888.8 952.5 1003.5 1056 1122.8
1200.8 1271.2 1315.5 1364.2 1416 1461 1506.8 1535.2 1533.8 1515.8
1502.2 1491 1475.2 1453.5 1415.2 1356.8 1289.2 1207.5 1116.8 1045.5
982.5 906.8 852.8
264 264 263 262 260 257 254 251 246 242
236 230 224 217 210 203 195 187 178 169
160 150 141 131 121 112 102 93 84 75
67 59 51 44 38 32 16 76.5 228 384
495.8 584.2 658.5 724.5 771.8 819.8 878.2 936 984.8 1053.8
1125 1187.2 1242 1296.8 1344.8 1393.5 1435.5 1471.5 1480.5 1473
1458 1452 1445.2 1419 1385.2 1335.8 1270.5 1202.2 1125.8 1053
985.5 912 852.8
264 264 263 262 260 257 254 251 246 242
236 230 224 217 210 203 195 187 178 169
160 150 141 131 121 112 102 93 84 75
67 59 51 44 38 32 7 84.8 196.5 359.2
471.8 567 648.8 703.5 740.2 774.8 798 822.8 867.8 940.5
1002 1055.2 1104 1150.5 1194.8 1238.2 1279.5 1296 1314.8 1324.5
1357.5 1372.5 1367.2 1346.2 1311 1266.8 1218.8 1160.2 1096.5 1039.5
973.5 916.5 852.8
264 264 263 262 260 257 254 251 246 242
236 230 224 217 210 203 195 187 178 169
160 150 141 131 121 112 102 93 84 75
67 59 51 44 38 32 14 100.5 249 412.5
522.8 618 672 712.5 751.5 793.5 850.5 909.8 969 1036.5
1125 1190.2 1247.2 1300.5 1356.8 1402.5 1435.5 1471.5 1495.5 1500.8
1498.5 1504.5 1491.8 1468.5 1423.5 1351.5 1283.2 1207.5 1133.2 1064.2
997.5 937.5 852.8
264 264 263 262 260 257 254 251 246 242
236 230 224 217 210 203 195 187 178 169
160 150 141 131 121 112 102 93 84 75
67 59 51 44 38 32 33 132.8 277.5 449.2
566.2 630.8 678 720 784.5 864 936 995.2 1056 1131.8
1212.8 1291.5 1347.8 1383.8 1435.5 1479.8 1515 1542.8 1555.5 1549.5
1537.5 1545 1539 1513.5 1465.5 1388.2 1311 1225.5 1132.5 1056.8
992.2 939 852.8
264 264 263 262 260 257 254 251 246 242
236 230 224 217 210 203 195 187 178 169
160 150 141 131 121 112 102 93 84 75
67 59 51 44 38 32 40 150.8 287.2 489.8
616.5 654.8 667.5 714.8 795.8 891 981.8 1070.2 1164 1267.5
1368.8 1446 1488.8 1515 1554 1551 1563 1577.2 1590 1574.2
1556.2 1573.5 1578.8 1538.2 1495.5 1415.2 1329.8 1233.8 1130.2 1055.2
988.5 933 852.8
264 264 263 262 260 257 254 251 246 242
236 230 224 217 210 203 195 187 178 169
160 150 141 131 121 112 102 93 84 75
67 59 51 44 38 32 55 160.5 452.2 621
776.2 876.8 905.2 926.2 984.8 1063.5 1167 1266.8 1340.2 1413.8
1481.2 1537.5 1584.8 1635 1716.8 1770 1752.8 1661.2 1563 1472.2
1490.2 1498.5 1487.2 1485.8 1461.8 1394.2 1311 1188 1091.2 1033.5
966 907.5 852.8
264 264 263 262 260 257 254 251 246 242
236 230 224 217 210 203 195 187 178 169
160 150 141 131 121 112 102 93 84 75
67 59 51 44 38 32 33 179.2 368.2 507.8
590.2 642.8 690.8 768.8 863.2 981 1076.2 1113 1149.8 1200
1291.5 1371.8 1431 1494.8 1563.8 1617 1664.2 1653 1593 1536
1517.2 1500.8 1509 1468.5 1416 1341 1269.8 1179.8 1104.8 1038.8
970.5 900.8 852.8
264 264 263 262 260 257 254 251 246 242
236 230 224 217 210 203 195 187 178 169
160 150 141 131 121 112 102 93 84 75
67 59 51 44 38 32 25 126 274.5 429
541.5 609 672.8 741 804 888.8 952.5 1003.5 1056 1122.8
1200.8 1271.2 1315.5 1364.2 1416 1461 1506.8 1535.2 1533.8 1515.8
1502.2 1491 1475.2 1453.5 1415.2 1356.8 1289.2 1207.5 1116.8 1045.5
982.5 906.8 852.8
264 264 263 262 260 257 254 251 246 242
236 230 224 217 210 203 195 187 178 169
160 150 141 131 121 112 102 93 84 75
67 59 51 44 38 32 16 76.5 228 384
495.8 584.2 658.5 724.5 771.8 819.8 878.2 936 984.8 1053.8
1125 1187.2 1242 1296.8 1344.8 1393.5 1435.5 1471.5 1480.5 1473
1458 1452 1445.2 1419 1385.2 1335.8 1270.5 1202.2 1125.8 1053
985.5 912 852.8
264 264 263 262 260 257 254 251 246 242
236 230 224 217 210 203 195 187 178 169
160 150 141 131 121 112 102 93 84 75
67 59 51 44 38 32 7 84.8 196.5 359.2
471.8 567 648.8 703.5 740.2 774.8 798 822.8 867.8 940.5
1002 1055.2 1104 1150.5 1194.8 1238.2 1279.5 1296 1314.8 1324.5
1357.5 1372.5 1367.2 1346.2 1311 1266.8 1218.8 1160.2 1096.5 1039.5
973.5 916.5 852.8
264 264 263 262 260 257 254 251 246 242
236 230 224 217 210 203 195 187 178 169
160 150 141 131 121 112 102 93 84 75
67 59 51 44 38 32 14 100.5 249 412.5
522.8 618 672 712.5 751.5 793.5 850.5 909.8 969 1036.5
1125 1190.2 1247.2 1300.5 1356.8 1402.5 1435.5 1471.5 1495.5 1500.8
1498.5 1504.5 1491.8 1468.5 1423.5 1351.5 1283.2 1207.5 1133.2 1064.2
997.5 937.5 852.8
264 264 263 262 260 257 254 251 246 242
236 230 224 217 210 203 195 187 178 169
160 150 141 131 121 112 102 93 84 75
67 59 51 44 38 32 33 132.8 277.5 449.2
566.2 630.8 678 720 784.5 864 936 995.2 1056 1131.8
1212.8 1291.5 1347.8 1383.8 1435.5 1479.8 1515 1542.8 1555.5 1549.5
1537.5 1545 1539 1513.5 1465.5 1388.2 1311 1225.5 1132.5 1056.8
992.2 939 852.8
264 264 263 262 260 257 254 251 246 242
236 230 224 217 210 203 195 187 178 169
160 150 141 131 121 112 102 93 84 75
67 59 51 44 38 32 40 150.8 287.2 489.8
616.5 654.8 667.5 714.8 795.8 891 981.8 1070.2 1164 1267.5
1368.8 1446 1488.8 1515 1554 1551 1563 1577.2 1590 1574.2
1556.2 1573.5 1578.8 1538.2 1495.5 1415.2 1329.8 1233.8 1130.2 1055.2
988.5 933 852.8
264 264 263 262 260 257 254 251 246 242
236 230 224 217 210 203 195 187 178 169
160 150 141 131 121 112 102 93 84 75
67 59 51 44 38 32 55 160.5 452.2 621
776.2 876.8 905.2 926.2 984.8 1063.5 1167 1266.8 1340.2 1413.8
1481.2 1537.5 1584.8 1635 1716.8 1770 1752.8 1661.2 1563 1472.2
1490.2 1498.5 1487.2 1485.8 1461.8 1394.2 1311 1188 1091.2 1033.5
966 907.5 852.8
264 264 263 262 260 257 254 251 246 242
236 230 224 217 210 203 195 187 178 169
160 150 141 131 121 112 102 93 84 75
67 59 51 44 38 32 33 179.2 368.2 507.8
590.2 642.8 690.8 768.8 863.2 981 1076.2 1113 1149.8 1200
1291.5 1371.8 1431 1494.8 1563.8 1617 1664.2 1653 1593 1536
1517.2 1500.8 1509 1468.5 1416 1341 1269.8 1179.8 1104.8 1038.8
970.5 900.8 852.8
264 264 263 262 260 257 254 251 246 242
236 230 224 217 210 203 195 187 178 169
160 150 141 131 121 112 102 93 84 75
67 59 51 44 38 32 25 126 274.5 429
541.5 609 672.8 741 804 888.8 952.5 1003.5 1056 1122.8
1200.8 1271.2 1315.5 1364.2 1416 1461 1506.8 1535.2 1533.8 1515.8
1502.2 1491 1475.2 1453.5 1415.2 1356.8 1289.2 1207.5 1116.8 1045.5
982.5 906.8 852.8
264 264 263 262 260 257 254 251 246 242
236 230 224 217 210 203 195 187 178 169
160 150 141 131 121 112 102 93 84 75
67 59 51 44 38 32 16 76.5 228 384
495.8 584.2 658.5 724.5 771.8 819.8 878.2 936 984.8 1053.8
1125 1187.2 1242 1296.8 1344.8 1393.5 1435.5 1471.5 1480.5 1473
1458 1452 1445.2 1419 1385.2 1335.8 1270.5 1202.2 1125.8 1053
985.5 912 852.8
264 264 263 262 260 257 254 251 246 242
236 230 224 217 210 203 195 187 178 169
160 150 141 131 121 112 102 93 84 75
67 59 51 44 38 32 7 84.8 196.5 359.2
471.8 567 648.8 703.5 740.2 774.8 798 822.8 867.8 940.5
1002 1055.2 1104 1150.5 1194.8 1238.2 1279.5 1296 1314.8 1324.5
1357.5 1372.5 1367.2 1346.2 1311 1266.8 1218.8 1160.2 1096.5 1039.5
973.5 916.5 852.8
