IESNA:LM-63-2002
[TEST]253P228
[TESTLAB]METALUX LABORATORIES
[ISSUEDATE]05/12/08
[MANUFAC]COOPER LIGHTING - SHAPER
[LUMCAT]1250-XX-36-CFL/3/70-T5C/1/40
[LUMINAIRE]SHAPER 36 INCH 1250 SERIES DIRECT/INDIRECT INDOOR PENDANT FIXTURE 
[MORE]WITH SHALLOW BOWL
[LAMP]THREE 70 WATT FLUORESCENT LAMPS AND ONE 40 WATTS
[MORE](3)PLT70/830 -5200 LUMENS AND (1)TL5C40W/830 - 3300 LUMENS
[OTHER]THIS FILE WAS PRORATED FROM TEST NO: 253P228
TILT=NONE
1 18900 1 73 25 1 1 -3 -3 0.520833
1 1 250
0 2.5 5 7.5 10 12.5 15 17.5 20 22.5
25 27.5 30 32.5 35 37.5 40 42.5 45 47.5
50 52.5 55 57.5 60 62.5 65 67.5 70 72.5
75 77.5 80 82.5 85 87.5 90 92.5 95 97.5
100 102.5 105 107.5 110 112.5 115 117.5 120 122.5
125 127.5 130 132.5 135 137.5 140 142.5 145 147.5
150 152.5 155 157.5 160 162.5 165 167.5 170 172.5
175 177.5 180
0 20 30 40 60 80 90 100 120 140
150 160 180 200 210 220 240 260 270 280
300 320 330 340 360
489 489 488 486 483 478 473 466 459 450
441 430 418 406 393 379 364 349 333 316
299 282 264 245 227 208 190 172 154 137
121 105 91 77 65 54 33 509.1 919.1 1072.7
1139.2 1226.2 1344.7 1500.7 1687 1850.2 1986.9 2092.1 2196.1 2306.1
2405.3 2483.9 2552.8 2620.6 2676.2 2725.8 2768.1 2837 2949.5 2979.7
2916.8 2912 2887.8 2829.8 2741.5 2649.6 2538.3 2408.9 2252.9 2093.3
1914.3 1757.1 1654.3
489 489 488 486 483 478 473 466 459 450
441 430 418 406 393 379 364 349 333 316
299 282 264 245 227 208 190 172 154 137
121 105 91 77 65 54 37 532.1 911.8 1065.4
1146.4 1251.6 1411.3 1599.9 1784.9 1967.5 2117.5 2232.4 2364.2 2522.6
2673.8 2789.9 2887.8 2961.6 3013.6 3058.3 3077.7 3091 3066.8 3051.1
3029.3 3032.9 2976.1 2886.6 2770.5 2632.7 2497.2 2341.2 2197.3 2054.6
1907.1 1754.7 1654.3
489 489 488 486 483 478 473 466 459 450
441 430 418 406 393 379 364 349 333 316
299 282 264 245 227 208 190 172 154 137
121 105 91 77 65 54 39 555.1 956.6 1112.6
1190 1324.2 1509.2 1685.8 1933.7 2142.9 2290.4 2408.9 2534.7 2675
2826.1 2944.7 3040.2 3124.8 3188.9 3228.8 3228.8 3209.5 3168.4 3111.5
3107.9 3023.3 2954.3 2861.2 2722.1 2560.1 2421 2277.1 2155 2029.2
1888.9 1737.8 1654.3
489 489 488 486 483 478 473 466 459 450
441 430 418 406 393 379 364 349 333 316
299 282 264 245 227 208 190 172 154 137
121 105 91 77 65 54 49 662.7 1100.5 1275.8
1360.5 1462 1638.6 1768 2019.5 2219.1 2364.2 2502 2629 2770.5
2896.3 2976.1 3036.6 3091 3162.3 3220.4 3236.1 3239.7 3236.1 3213.1
3218 3077.7 3000.3 2845.5 2638.7 2492.4 2366.6 2243.3 2127.2 2008.7
1874.4 1734.1 1654.3
489 489 488 486 483 478 473 466 459 450
441 430 418 406 393 379 364 349 333 316
299 282 264 245 227 208 190 172 154 137
121 105 91 77 65 54 58 1165.8 1693 1399.2
1341.1 1451.2 1598.7 1812.7 2105.4 2389.6 2590.3 2699.2 2756 2777.8
2781.4 2806.8 2914.4 3022 3104.3 3132.1 3157.5 3178 3176.8 3153.9
3150.2 2960.4 2832.2 2650.8 2510.5 2408.9 2320.7 2190 2078.8 1977.2
1858.7 1734.1 1654.3
489 489 488 486 483 478 473 466 459 450
441 430 418 406 393 379 364 349 333 316
299 282 264 245 227 208 190 172 154 137
121 105 91 77 65 54 66 817.5 1287.9 1321.8
1420.9 1487.4 1528.6 1798.2 2142.9 2398 2471.8 2532.3 2646 2802
2937.4 3025.7 3100.7 3179.3 3253 3278.4 3268.7 3233.7 3180.5 3124.8
3144.2 3081.3 2913.2 2764.5 2670.1 2556.5 2421 2289.2 2165.9 2031.6
1888.9 1753.5 1654.3
489 489 488 486 483 478 473 466 459 450
441 430 418 406 393 379 364 349 333 316
299 282 264 245 227 208 190 172 154 137
121 105 91 77 65 54 57 667.5 1098 1190
1332.7 1491.1 1592.7 1829.7 2083.6 2261.4 2381.1 2498.4 2626.6 2775.3
2910.8 3024.5 3101.9 3156.3 3193.8 3226.4 3215.5 3170.8 3126 3105.5
3158.7 3030.5 2953.1 2913.2 2824.9 2673.8 2535.9 2404.1 2255.3 2081.2
1918 1780.1 1654.3
489 489 488 486 483 478 473 466 459 450
441 430 418 406 393 379 364 349 333 316
299 282 264 245 227 208 190 172 154 137
121 105 91 77 65 54 38 625.2 1017 1121
1243.2 1456 1607.2 1763.2 1963.9 2118.7 2242 2369 2496 2614.5
2720.9 2824.9 2901.1 2954.3 2988.2 3017.2 3048.7 3060.7 3058.3 3070.4
3080.1 3030.5 3017.2 2962.8 2860 2724.6 2598.8 2458.5 2295.3 2110.2
1932.5 1778.9 1654.3
489 489 488 486 483 478 473 466 459 450
441 430 418 406 393 379 364 349 333 316
299 282 264 245 227 208 190 172 154 137
121 105 91 77 65 54 33 509.1 919.1 1072.7
1139.2 1226.2 1344.7 1500.7 1687 1850.2 1986.9 2092.1 2196.1 2306.1
2405.3 2483.9 2552.8 2620.6 2676.2 2725.8 2768.1 2837 2949.5 2979.7
2916.8 2912 2887.8 2829.8 2741.5 2649.6 2538.3 2408.9 2252.9 2093.3
1914.3 1757.1 1654.3
489 489 488 486 483 478 473 466 459 450
441 430 418 406 393 379 364 349 333 316
299 282 264 245 227 208 190 172 154 137
121 105 91 77 65 54 37 532.1 911.8 1065.4
1146.4 1251.6 1411.3 1599.9 1784.9 1967.5 2117.5 2232.4 2364.2 2522.6
2673.8 2789.9 2887.8 2961.6 3013.6 3058.3 3077.7 3091 3066.8 3051.1
3029.3 3032.9 2976.1 2886.6 2770.5 2632.7 2497.2 2341.2 2197.3 2054.6
1907.1 1754.7 1654.3
489 489 488 486 483 478 473 466 459 450
441 430 418 406 393 379 364 349 333 316
299 282 264 245 227 208 190 172 154 137
121 105 91 77 65 54 39 555.1 956.6 1112.6
1190 1324.2 1509.2 1685.8 1933.7 2142.9 2290.4 2408.9 2534.7 2675
2826.1 2944.7 3040.2 3124.8 3188.9 3228.8 3228.8 3209.5 3168.4 3111.5
3107.9 3023.3 2954.3 2861.2 2722.1 2560.1 2421 2277.1 2155 2029.2
1888.9 1737.8 1654.3
489 489 488 486 483 478 473 466 459 450
441 430 418 406 393 379 364 349 333 316
299 282 264 245 227 208 190 172 154 137
121 105 91 77 65 54 49 662.7 1100.5 1275.8
1360.5 1462 1638.6 1768 2019.5 2219.1 2364.2 2502 2629 2770.5
2896.3 2976.1 3036.6 3091 3162.3 3220.4 3236.1 3239.7 3236.1 3213.1
3218 3077.7 3000.3 2845.5 2638.7 2492.4 2366.6 2243.3 2127.2 2008.7
1874.4 1734.1 1654.3
489 489 488 486 483 478 473 466 459 450
441 430 418 406 393 379 364 349 333 316
299 282 264 245 227 208 190 172 154 137
121 105 91 77 65 54 58 1165.8 1693 1399.2
1341.1 1451.2 1598.7 1812.7 2105.4 2389.6 2590.3 2699.2 2756 2777.8
2781.4 2806.8 2914.4 3022 3104.3 3132.1 3157.5 3178 3176.8 3153.9
3150.2 2960.4 2832.2 2650.8 2510.5 2408.9 2320.7 2190 2078.8 1977.2
1858.7 1734.1 1654.3
489 489 488 486 483 478 473 466 459 450
441 430 418 406 393 379 364 349 333 316
299 282 264 245 227 208 190 172 154 137
121 105 91 77 65 54 66 817.5 1287.9 1321.8
1420.9 1487.4 1528.6 1798.2 2142.9 2398 2471.8 2532.3 2646 2802
2937.4 3025.7 3100.7 3179.3 3253 3278.4 3268.7 3233.7 3180.5 3124.8
3144.2 3081.3 2913.2 2764.5 2670.1 2556.5 2421 2289.2 2165.9 2031.6
1888.9 1753.5 1654.3
489 489 488 486 483 478 473 466 459 450
441 430 418 406 393 379 364 349 333 316
299 282 264 245 227 208 190 172 154 137
121 105 91 77 65 54 57 667.5 1098 1190
1332.7 1491.1 1592.7 1829.7 2083.6 2261.4 2381.1 2498.4 2626.6 2775.3
2910.8 3024.5 3101.9 3156.3 3193.8 3226.4 3215.5 3170.8 3126 3105.5
3158.7 3030.5 2953.1 2913.2 2824.9 2673.8 2535.9 2404.1 2255.3 2081.2
1918 1780.1 1654.3
489 489 488 486 483 478 473 466 459 450
441 430 418 406 393 379 364 349 333 316
299 282 264 245 227 208 190 172 154 137
121 105 91 77 65 54 38 625.2 1017 1121
1243.2 1456 1607.2 1763.2 1963.9 2118.7 2242 2369 2496 2614.5
2720.9 2824.9 2901.1 2954.3 2988.2 3017.2 3048.7 3060.7 3058.3 3070.4
3080.1 3030.5 3017.2 2962.8 2860 2724.6 2598.8 2458.5 2295.3 2110.2
1932.5 1778.9 1654.3
489 489 488 486 483 478 473 466 459 450
441 430 418 406 393 379 364 349 333 316
299 282 264 245 227 208 190 172 154 137
121 105 91 77 65 54 33 509.1 919.1 1072.7
1139.2 1226.2 1344.7 1500.7 1687 1850.2 1986.9 2092.1 2196.1 2306.1
2405.3 2483.9 2552.8 2620.6 2676.2 2725.8 2768.1 2837 2949.5 2979.7
2916.8 2912 2887.8 2829.8 2741.5 2649.6 2538.3 2408.9 2252.9 2093.3
1914.3 1757.1 1654.3
489 489 488 486 483 478 473 466 459 450
441 430 418 406 393 379 364 349 333 316
299 282 264 245 227 208 190 172 154 137
121 105 91 77 65 54 37 532.1 911.8 1065.4
1146.4 1251.6 1411.3 1599.9 1784.9 1967.5 2117.5 2232.4 2364.2 2522.6
2673.8 2789.9 2887.8 2961.6 3013.6 3058.3 3077.7 3091 3066.8 3051.1
3029.3 3032.9 2976.1 2886.6 2770.5 2632.7 2497.2 2341.2 2197.3 2054.6
1907.1 1754.7 1654.3
489 489 488 486 483 478 473 466 459 450
441 430 418 406 393 379 364 349 333 316
299 282 264 245 227 208 190 172 154 137
121 105 91 77 65 54 39 555.1 956.6 1112.6
1190 1324.2 1509.2 1685.8 1933.7 2142.9 2290.4 2408.9 2534.7 2675
2826.1 2944.7 3040.2 3124.8 3188.9 3228.8 3228.8 3209.5 3168.4 3111.5
3107.9 3023.3 2954.3 2861.2 2722.1 2560.1 2421 2277.1 2155 2029.2
1888.9 1737.8 1654.3
489 489 488 486 483 478 473 466 459 450
441 430 418 406 393 379 364 349 333 316
299 282 264 245 227 208 190 172 154 137
121 105 91 77 65 54 49 662.7 1100.5 1275.8
1360.5 1462 1638.6 1768 2019.5 2219.1 2364.2 2502 2629 2770.5
2896.3 2976.1 3036.6 3091 3162.3 3220.4 3236.1 3239.7 3236.1 3213.1
3218 3077.7 3000.3 2845.5 2638.7 2492.4 2366.6 2243.3 2127.2 2008.7
1874.4 1734.1 1654.3
489 489 488 486 483 478 473 466 459 450
441 430 418 406 393 379 364 349 333 316
299 282 264 245 227 208 190 172 154 137
121 105 91 77 65 54 58 1165.8 1693 1399.2
1341.1 1451.2 1598.7 1812.7 2105.4 2389.6 2590.3 2699.2 2756 2777.8
2781.4 2806.8 2914.4 3022 3104.3 3132.1 3157.5 3178 3176.8 3153.9
3150.2 2960.4 2832.2 2650.8 2510.5 2408.9 2320.7 2190 2078.8 1977.2
1858.7 1734.1 1654.3
489 489 488 486 483 478 473 466 459 450
441 430 418 406 393 379 364 349 333 316
299 282 264 245 227 208 190 172 154 137
121 105 91 77 65 54 66 817.5 1287.9 1321.8
1420.9 1487.4 1528.6 1798.2 2142.9 2398 2471.8 2532.3 2646 2802
2937.4 3025.7 3100.7 3179.3 3253 3278.4 3268.7 3233.7 3180.5 3124.8
3144.2 3081.3 2913.2 2764.5 2670.1 2556.5 2421 2289.2 2165.9 2031.6
1888.9 1753.5 1654.3
489 489 488 486 483 478 473 466 459 450
441 430 418 406 393 379 364 349 333 316
299 282 264 245 227 208 190 172 154 137
121 105 91 77 65 54 57 667.5 1098 1190
1332.7 1491.1 1592.7 1829.7 2083.6 2261.4 2381.1 2498.4 2626.6 2775.3
2910.8 3024.5 3101.9 3156.3 3193.8 3226.4 3215.5 3170.8 3126 3105.5
3158.7 3030.5 2953.1 2913.2 2824.9 2673.8 2535.9 2404.1 2255.3 2081.2
1918 1780.1 1654.3
489 489 488 486 483 478 473 466 459 450
441 430 418 406 393 379 364 349 333 316
299 282 264 245 227 208 190 172 154 137
121 105 91 77 65 54 38 625.2 1017 1121
1243.2 1456 1607.2 1763.2 1963.9 2118.7 2242 2369 2496 2614.5
2720.9 2824.9 2901.1 2954.3 2988.2 3017.2 3048.7 3060.7 3058.3 3070.4
3080.1 3030.5 3017.2 2962.8 2860 2724.6 2598.8 2458.5 2295.3 2110.2
1932.5 1778.9 1654.3
489 489 488 486 483 478 473 466 459 450
441 430 418 406 393 379 364 349 333 316
299 282 264 245 227 208 190 172 154 137
121 105 91 77 65 54 33 509.1 919.1 1072.7
1139.2 1226.2 1344.7 1500.7 1687 1850.2 1986.9 2092.1 2196.1 2306.1
2405.3 2483.9 2552.8 2620.6 2676.2 2725.8 2768.1 2837 2949.5 2979.7
2916.8 2912 2887.8 2829.8 2741.5 2649.6 2538.3 2408.9 2252.9 2093.3
1914.3 1757.1 1654.3
