IESNA:LM-63-2002
[TEST]253P251
[TESTLAB]METALUX LABORATORIES
[ISSUEDATE]05/12/08
[MANUFAC]COOPER LIGHTING - SHAPER
[LUMCAT]1250-XX-44-CFL/4/57-T5C/1/40
[LUMINAIRE]SHAPER 44 INCH 1250 SERIES DIRECT/INDIRECT INDOOR PENDANT FIXTURE
[MORE]WITH SHALLOW BOWL
[LAMP]FOUR 57 WATT COMPACT FLUORESCENT LAMP AND ONE 40 WATTS T5 CIRCLINE
[MORE](4)F57BX/840 - 4300 LUMENS AND (1)TL5C40W/830 - 3300 LUMENS
[OTHER]THIS FILE WAS PRORATED FROM TEST NO: 253P251
TILT=NONE
1 20500 1 73 17 1 1 -3.666667 -3.666667 0.6875
1 1 268
0 2.5 5 7.5 10 12.5 15 17.5 20 22.5
25 27.5 30 32.5 35 37.5 40 42.5 45 47.5
50 52.5 55 57.5 60 62.5 65 67.5 70 72.5
75 77.5 80 82.5 85 87.5 90 92.5 95 97.5
100 102.5 105 107.5 110 112.5 115 117.5 120 122.5
125 127.5 130 132.5 135 137.5 140 142.5 145 147.5
150 152.5 155 157.5 160 162.5 165 167.5 170 172.5
175 177.5 180
0 22.5 45 67.5 90 112.5 135 157.5 180 202.5
225 247.5 270 292.5 315 337.5 360
388 388 388 386 383 380 376 371 365 358
351 342 333 324 314 303 291 279 267 254
241 227 213 198 184 170 156 142 129 116
103 91 80 69 59 50 5 525.9 1221.4 1834.1
2152.5 2374.9 2611.4 2824.8 2909.9 2927.3 2901.7 2931.4 2939.7 2929.8
2956.2 3000.9 3006.7 2999.2 3000.1 3017.4 3051.3 3115 3053.8 2955.4
2811.5 2704.9 2650.3 2585.8 2506.4 2448.5 2393.9 2331.1 2253.4 2174
2096.2 2033.4 1987.9
388 388 388 386 383 380 376 371 365 358
351 342 333 324 314 303 291 279 267 254
241 227 213 198 184 170 156 142 129 116
103 91 80 69 59 50 4 130.7 602 1018.8
1398.3 1739 1946.6 2158.3 2431.2 2667.7 2876 3066.2 3189.4 3271.3
3320.1 3344.1 3363.9 3355.7 3341.6 3327.5 3364.8 3336.6 3260.6 3129.9
3075.3 2995.1 2895.9 2788.4 2666.8 2561 2464.2 2363.3 2268.2 2174
2089.6 2021 1987.9
388 388 388 386 383 380 376 371 365 358
351 342 333 324 314 303 291 279 267 254
241 227 213 198 184 170 156 142 129 116
103 91 80 69 59 50 3 146.4 540 952.6
1334.7 1660.5 1906.1 2198 2498.1 2831.4 3064.6 3228.3 3300.2 3299.4
3309.3 3330.8 3369.7 3420.2 3430.9 3423.5 3413.5 3375.5 3299.4 3231.6
3176.2 3094.3 2985.2 2916.6 2834.7 2690 2536.2 2405.5 2288.1 2184.7
2096.2 2026.8 1987.9
388 388 388 386 383 380 376 371 365 358
351 342 333 324 314 303 291 279 267 254
241 227 213 198 184 170 156 142 129 116
103 91 80 69 59 50 4 208.4 740.9 1213.1
1623.2 1825 1979.7 2210.4 2489.9 2747.9 2922.3 3084.4 3208.5 3322.6
3411.9 3426.8 3450.8 3464.8 3484.7 3553.3 3512.8 3491.3 3430.9 3297.8
3096.8 3033.2 3025.7 2873.6 2738.8 2652.8 2503.1 2370.8 2269.1 2176.5
2093.8 2019.3 1987.9
388 388 388 386 383 380 376 371 365 358
351 342 333 324 314 303 291 279 267 254
241 227 213 198 184 170 156 142 129 116
103 91 80 69 59 50 5 525.9 1221.4 1834.1
2152.5 2374.9 2611.4 2824.8 2909.9 2927.3 2901.7 2931.4 2939.7 2929.8
2956.2 3000.9 3006.7 2999.2 3000.1 3017.4 3051.3 3115 3053.8 2955.4
2811.5 2704.9 2650.3 2585.8 2506.4 2448.5 2393.9 2331.1 2253.4 2174
2096.2 2033.4 1987.9
388 388 388 386 383 380 376 371 365 358
351 342 333 324 314 303 291 279 267 254
241 227 213 198 184 170 156 142 129 116
103 91 80 69 59 50 4 130.7 602 1018.8
1398.3 1739 1946.6 2158.3 2431.2 2667.7 2876 3066.2 3189.4 3271.3
3320.1 3344.1 3363.9 3355.7 3341.6 3327.5 3364.8 3336.6 3260.6 3129.9
3075.3 2995.1 2895.9 2788.4 2666.8 2561 2464.2 2363.3 2268.2 2174
2089.6 2021 1987.9
388 388 388 386 383 380 376 371 365 358
351 342 333 324 314 303 291 279 267 254
241 227 213 198 184 170 156 142 129 116
103 91 80 69 59 50 3 146.4 540 952.6
1334.7 1660.5 1906.1 2198 2498.1 2831.4 3064.6 3228.3 3300.2 3299.4
3309.3 3330.8 3369.7 3420.2 3430.9 3423.5 3413.5 3375.5 3299.4 3231.6
3176.2 3094.3 2985.2 2916.6 2834.7 2690 2536.2 2405.5 2288.1 2184.7
2096.2 2026.8 1987.9
388 388 388 386 383 380 376 371 365 358
351 342 333 324 314 303 291 279 267 254
241 227 213 198 184 170 156 142 129 116
103 91 80 69 59 50 4 208.4 740.9 1213.1
1623.2 1825 1979.7 2210.4 2489.9 2747.9 2922.3 3084.4 3208.5 3322.6
3411.9 3426.8 3450.8 3464.8 3484.7 3553.3 3512.8 3491.3 3430.9 3297.8
3096.8 3033.2 3025.7 2873.6 2738.8 2652.8 2503.1 2370.8 2269.1 2176.5
2093.8 2019.3 1987.9
388 388 388 386 383 380 376 371 365 358
351 342 333 324 314 303 291 279 267 254
241 227 213 198 184 170 156 142 129 116
103 91 80 69 59 50 5 525.9 1221.4 1834.1
2152.5 2374.9 2611.4 2824.8 2909.9 2927.3 2901.7 2931.4 2939.7 2929.8
2956.2 3000.9 3006.7 2999.2 3000.1 3017.4 3051.3 3115 3053.8 2955.4
2811.5 2704.9 2650.3 2585.8 2506.4 2448.5 2393.9 2331.1 2253.4 2174
2096.2 2033.4 1987.9
388 388 388 386 383 380 376 371 365 358
351 342 333 324 314 303 291 279 267 254
241 227 213 198 184 170 156 142 129 116
103 91 80 69 59 50 4 130.7 602 1018.8
1398.3 1739 1946.6 2158.3 2431.2 2667.7 2876 3066.2 3189.4 3271.3
3320.1 3344.1 3363.9 3355.7 3341.6 3327.5 3364.8 3336.6 3260.6 3129.9
3075.3 2995.1 2895.9 2788.4 2666.8 2561 2464.2 2363.3 2268.2 2174
2089.6 2021 1987.9
388 388 388 386 383 380 376 371 365 358
351 342 333 324 314 303 291 279 267 254
241 227 213 198 184 170 156 142 129 116
103 91 80 69 59 50 3 146.4 540 952.6
1334.7 1660.5 1906.1 2198 2498.1 2831.4 3064.6 3228.3 3300.2 3299.4
3309.3 3330.8 3369.7 3420.2 3430.9 3423.5 3413.5 3375.5 3299.4 3231.6
3176.2 3094.3 2985.2 2916.6 2834.7 2690 2536.2 2405.5 2288.1 2184.7
2096.2 2026.8 1987.9
388 388 388 386 383 380 376 371 365 358
351 342 333 324 314 303 291 279 267 254
241 227 213 198 184 170 156 142 129 116
103 91 80 69 59 50 4 208.4 740.9 1213.1
1623.2 1825 1979.7 2210.4 2489.9 2747.9 2922.3 3084.4 3208.5 3322.6
3411.9 3426.8 3450.8 3464.8 3484.7 3553.3 3512.8 3491.3 3430.9 3297.8
3096.8 3033.2 3025.7 2873.6 2738.8 2652.8 2503.1 2370.8 2269.1 2176.5
2093.8 2019.3 1987.9
388 388 388 386 383 380 376 371 365 358
351 342 333 324 314 303 291 279 267 254
241 227 213 198 184 170 156 142 129 116
103 91 80 69 59 50 5 525.9 1221.4 1834.1
2152.5 2374.9 2611.4 2824.8 2909.9 2927.3 2901.7 2931.4 2939.7 2929.8
2956.2 3000.9 3006.7 2999.2 3000.1 3017.4 3051.3 3115 3053.8 2955.4
2811.5 2704.9 2650.3 2585.8 2506.4 2448.5 2393.9 2331.1 2253.4 2174
2096.2 2033.4 1987.9
388 388 388 386 383 380 376 371 365 358
351 342 333 324 314 303 291 279 267 254
241 227 213 198 184 170 156 142 129 116
103 91 80 69 59 50 4 130.7 602 1018.8
1398.3 1739 1946.6 2158.3 2431.2 2667.7 2876 3066.2 3189.4 3271.3
3320.1 3344.1 3363.9 3355.7 3341.6 3327.5 3364.8 3336.6 3260.6 3129.9
3075.3 2995.1 2895.9 2788.4 2666.8 2561 2464.2 2363.3 2268.2 2174
2089.6 2021 1987.9
388 388 388 386 383 380 376 371 365 358
351 342 333 324 314 303 291 279 267 254
241 227 213 198 184 170 156 142 129 116
103 91 80 69 59 50 3 146.4 540 952.6
1334.7 1660.5 1906.1 2198 2498.1 2831.4 3064.6 3228.3 3300.2 3299.4
3309.3 3330.8 3369.7 3420.2 3430.9 3423.5 3413.5 3375.5 3299.4 3231.6
3176.2 3094.3 2985.2 2916.6 2834.7 2690 2536.2 2405.5 2288.1 2184.7
2096.2 2026.8 1987.9
388 388 388 386 383 380 376 371 365 358
351 342 333 324 314 303 291 279 267 254
241 227 213 198 184 170 156 142 129 116
103 91 80 69 59 50 4 208.4 740.9 1213.1
1623.2 1825 1979.7 2210.4 2489.9 2747.9 2922.3 3084.4 3208.5 3322.6
3411.9 3426.8 3450.8 3464.8 3484.7 3553.3 3512.8 3491.3 3430.9 3297.8
3096.8 3033.2 3025.7 2873.6 2738.8 2652.8 2503.1 2370.8 2269.1 2176.5
2093.8 2019.3 1987.9
388 388 388 386 383 380 376 371 365 358
351 342 333 324 314 303 291 279 267 254
241 227 213 198 184 170 156 142 129 116
103 91 80 69 59 50 5 525.9 1221.4 1834.1
2152.5 2374.9 2611.4 2824.8 2909.9 2927.3 2901.7 2931.4 2939.7 2929.8
2956.2 3000.9 3006.7 2999.2 3000.1 3017.4 3051.3 3115 3053.8 2955.4
2811.5 2704.9 2650.3 2585.8 2506.4 2448.5 2393.9 2331.1 2253.4 2174
2096.2 2033.4 1987.9
