IESNA:LM-63-2002
[TEST]253P254
[TESTLAB]METALUX LABORATORIES
[ISSUEDATE]05/12/08
[MANUFAC]COOPER LIGHTING - SHAPER
[LUMCAT]1250-XX-44-CFL/4/39-T5C/1/40
[LUMINAIRE]SHAPER 44 INCH 1250 SERIES DIRECT/INDIRECT INDOOR PENDANT FIXTURE
[MORE]WITH SHALLOW BOWL
[LAMP]FOUR 39 WATT BIAX COMPACT FLUORESCENT LAMPS AND ONE 40 WATT T5 CIRCLINE
[MORE](4)F39BX - 2850 LUMENS AND (1)TL5C40W/830 - 3300 LUMENS
[OTHER]THIS FILE WAS PRORATED FROM TEST NO: 253P254
TILT=NONE
1 14700 1 73 17 1 1 -3.666667 -3.666667 0.6875
1 1 196
0 2.5 5 7.5 10 12.5 15 17.5 20 22.5
25 27.5 30 32.5 35 37.5 40 42.5 45 47.5
50 52.5 55 57.5 60 62.5 65 67.5 70 72.5
75 77.5 80 82.5 85 87.5 90 92.5 95 97.5
100 102.5 105 107.5 110 112.5 115 117.5 120 122.5
125 127.5 130 132.5 135 137.5 140 142.5 145 147.5
150 152.5 155 157.5 160 162.5 165 167.5 170 172.5
175 177.5 180
0 22.5 45 67.5 90 112.5 135 157.5 180 202.5
225 247.5 270 292.5 315 337.5 360
388 388 388 386 383 380 376 371 365 358
351 342 333 324 314 303 291 279 267 254
241 227 213 198 184 170 156 142 129 116
103 91 80 69 59 50 3 266.9 627.9 903.9
1056.8 1138.2 1286.6 1500.1 1732.6 1929 2192.2 2481.8 2649.1 2784.9
2868.1 2934.1 2972.1 2962.2 2928.7 2856.3 2802 2704.3 2643.7 2601.2
2539.7 2451.9 2267.3 2031.2 1787.8 1557.1 1342.7 1181.6 1069.4 973.5
900.2 871.3 843.2
388 388 388 386 383 380 376 371 365 358
351 342 333 324 314 303 291 279 267 254
241 227 213 198 184 170 156 142 129 116
103 91 80 69 59 50 6 140.2 459.6 773.6
1067.6 1316.4 1565.2 1878.3 2101.8 2290 2527.9 2717 2841 2952.2
3039.1 3087 3082.5 3040.9 2963.1 2899.8 2793 2707 2669 2600.3
2523.4 2371.4 2142.5 1900.9 1672 1454 1272.1 1140 1040.5 955.4
886.7 845 843.2
388 388 388 386 383 380 376 371 365 358
351 342 333 324 314 303 291 279 267 254
241 227 213 198 184 170 156 142 129 116
103 91 80 69 59 50 4 113.1 411.7 643.3
886.7 1180.7 1488.3 1822.2 2271 2492.6 2660 2862.7 2981.2 2996.6
2979.4 2925.1 2890.7 2837.3 2783 2765.9 2728.8 2689.9 2610.2 2425.7
2204 1984.1 1780.6 1580.6 1403.3 1257.6 1156.3 1066.7 980.8 913.8
867.7 841.4 843.2
388 388 388 386 383 380 376 371 365 358
351 342 333 324 314 303 291 279 267 254
241 227 213 198 184 170 156 142 129 116
103 91 80 69 59 50 2 134.8 365.5 589
824.2 1087.5 1292 1444 1552.6 1652.1 1832.1 1997.7 2064.7 2210.3
2324.3 2376.8 2328.9 2218.5 2095.4 1995 1903.6 1807.7 1691 1603.2
1544.4 1487.4 1396 1299.2 1211.5 1118.3 1031.4 969.9 920.1 880.3
855.9 846.9 843.2
388 388 388 386 383 380 376 371 365 358
351 342 333 324 314 303 291 279 267 254
241 227 213 198 184 170 156 142 129 116
103 91 80 69 59 50 2 40.7 138.4 231.6
310.3 352 449.7 547.4 633.3 675 764.5 903 995.2 1080.3
1155.4 1271.2 1358 1377 1367.1 1341.8 1336.3 1335.4 1318.2 1270.3
1246.8 1240.4 1222.3 1161.7 1099.3 1040.5 976.2 925.6 893 865.9
856.8 878.5 843.2
388 388 388 386 383 380 376 371 365 358
351 342 333 324 314 303 291 279 267 254
241 227 213 198 184 170 156 142 129 116
103 91 80 69 59 50 11 124 319.4 498.5
685.8 894.8 1128.2 1292.9 1381.6 1465.7 1580.6 1700 1785.1 1905.4
2038.4 2119 2093.6 2025.8 1938 1862 1786 1705.5 1599.6 1516.4
1468.4 1422.3 1342.7 1251.3 1167.1 1083.9 1003.4 945.5 903.9 869.5
848.7 842.3 843.2
388 388 388 386 383 380 376 371 365 358
351 342 333 324 314 303 291 279 267 254
241 227 213 198 184 170 156 142 129 116
103 91 80 69 59 50 7 161 429.8 608
814.3 1054 1260.3 1423.2 1728.1 2023 2275.5 2538.8 2716.1 2765
2754.1 2704.3 2688 2670.9 2628.3 2549.6 2500.8 2482.7 2434.7 2294.5
2104.5 1914.5 1732.6 1540.8 1361.7 1216 1118.3 1029.6 949.1 891.2
855.9 838.7 843.2
388 388 388 386 383 380 376 371 365 358
351 342 333 324 314 303 291 279 267 254
241 227 213 198 184 170 156 142 129 116
103 91 80 69 59 50 7 143 423.4 689.4
853.2 1052.2 1288.4 1555.3 1720.9 1871 2116.2 2369.6 2552.3 2732.4
2916 3044.5 3054.5 3001.1 2899.8 2839.1 2763.1 2675.4 2559.6 2465.5
2394.9 2280 2068.3 1847.5 1647.6 1431.3 1240.4 1111 1013.3 935.5
882.1 858.6 843.2
388 388 388 386 383 380 376 371 365 358
351 342 333 324 314 303 291 279 267 254
241 227 213 198 184 170 156 142 129 116
103 91 80 69 59 50 1 162 448.8 684.9
844.1 914.7 1102 1321.9 1533.6 1663 1895.5 2214.9 2404 2569.5
2697.1 2874.4 2994.8 2992 2935 2831.9 2774 2698.9 2621.1 2508.9
2421.1 2349.7 2212.1 1985 1755.2 1540.8 1326.4 1159 1046.8 950.9
881.2 848.7 843.2
388 388 388 386 383 380 376 371 365 358
351 342 333 324 314 303 291 279 267 254
241 227 213 198 184 170 156 142 129 116
103 91 80 69 59 50 2 125.8 422.5 702.1
960 1178 1418.7 1672 1844.8 1987.8 2215.8 2459.1 2652.8 2831
3022.8 3163 3169.4 3110.6 3001.1 2923.3 2830.1 2738.7 2629.2 2517
2439.2 2325.2 2124.4 1895.5 1681 1470.2 1278.4 1138.2 1032.3 943.7
879.4 846.9 843.2
388 388 388 386 383 380 376 371 365 358
351 342 333 324 314 303 291 279 267 254
241 227 213 198 184 170 156 142 129 116
103 91 80 69 59 50 2 145.7 439.7 667.7
891.2 1165.3 1457.6 1724.5 2095.4 2354.2 2546 2735.1 2860 2913.3
2917 2870.8 2838.2 2788.5 2755.9 2738.7 2694.4 2656.4 2584 2432.9
2226.6 2013.1 1811.3 1615 1429.5 1270.3 1165.3 1074 987.1 920.1
874 848.7 843.2
388 388 388 386 383 380 376 371 365 358
351 342 333 324 314 303 291 279 267 254
241 227 213 198 184 170 156 142 129 116
103 91 80 69 59 50 6 167.4 404.4 657.8
866.8 1112 1306.5 1521.8 1691.9 1833 1995 2110.8 2163.3 2219.4
2226.6 2220.3 2206.7 2151.5 2079.1 2001.3 1905.4 1827.6 1774.2 1714.5
1641.2 1545.3 1438.6 1334.5 1230.5 1128.2 1044.1 983.5 938.2 898.4
868.6 852.3 843.2
388 388 388 386 383 380 376 371 365 358
351 342 333 324 314 303 291 279 267 254
241 227 213 198 184 170 156 142 129 116
103 91 80 69 59 50 2 131.2 290.4 416.2
485 537.4 599.9 694.9 805.2 922.9 1046.8 1157.2 1229.6 1288.4
1324.6 1330.9 1335.4 1350.8 1364.4 1369.8 1371.6 1346.3 1346.3 1371.6
1374.3 1351.7 1286.6 1216.9 1140.9 1065.8 1001.6 957.2 924.7 897.5
875.8 872.2 843.2
388 388 388 386 383 380 376 371 365 358
351 342 333 324 314 303 291 279 267 254
241 227 213 198 184 170 156 142 129 116
103 91 80 69 59 50 5 138.4 401.7 649.6
931 1181.6 1388.8 1577 1714.5 1849.3 1981.4 2066.5 2138 2205.8
2235.7 2227.5 2178.7 2119 2050.2 1977.8 1881 1791.4 1744.4 1690.1
1628.6 1535.4 1425.9 1321.9 1219.6 1123.7 1045.9 988.9 942.8 904.8
874 853.2 843.2
388 388 388 386 383 380 376 371 365 358
351 342 333 324 314 303 291 279 267 254
241 227 213 198 184 170 156 142 129 116
103 91 80 69 59 50 3 173.7 510.3 748.2
1008.8 1286.6 1613.2 1942.5 2352.4 2586.7 2767.7 2898 2915.1 2906.1
2905.2 2870.8 2845.5 2784.9 2733.3 2752.3 2752.3 2727.9 2631 2430.2
2219.4 2006.8 1797.8 1589.7 1411.4 1272.1 1170.8 1085.7 1002.5 933.7
880.3 851.4 843.2
388 388 388 386 383 380 376 371 365 358
351 342 333 324 314 303 291 279 267 254
241 227 213 198 184 170 156 142 129 116
103 91 80 69 59 50 9 206.3 561.9 901.1
1172.6 1420.5 1628.6 1877.4 2091.8 2301.7 2590.3 2819.2 2951.3 3094.3
3165.8 3183 3147.7 3080.7 2986.6 2910.6 2801.1 2708 2653.7 2594.9
2522.5 2374.1 2150.6 1920.8 1704.6 1479.3 1287.5 1151.8 1051.3 962.7
896.6 858.6 843.2
388 388 388 386 383 380 376 371 365 358
351 342 333 324 314 303 291 279 267 254
241 227 213 198 184 170 156 142 129 116
103 91 80 69 59 50 3 266.9 627.9 903.9
1056.8 1138.2 1286.6 1500.1 1732.6 1929 2192.2 2481.8 2649.1 2784.9
2868.1 2934.1 2972.1 2962.2 2928.7 2856.3 2802 2704.3 2643.7 2601.2
2539.7 2451.9 2267.3 2031.2 1787.8 1557.1 1342.7 1181.6 1069.4 973.5
900.2 871.3 843.2
