IESNA:LM-63-2002
[TEST]25490     
[TESTLAB]LIGHTING SCIENCES, INC.                            
[ISSUEDATE] 7/13/2009
[MANUFAC]COOPER LIGHTING - SHAPER                                  
[LUMCAT]104-CFL/2/13-120V-CCS                                                           
[LUMINAIRE]DARK FABRIC SHADE SQUARE WALL SCONCE                                            
[LAMP]TWO SYLVANIA 13 WATT CFL LAMPS                                                  
[LAMPCAT]CF13DS/E/830. LUMEN RATING = 1600 LMS.                                          
[OTHER]ONE UNIVERSAL CT13UNVSE BALLASTS OPERATING AT 120 VAC AND 27 WATTS              
TILT=NONE
1
      1600
1
73
17
1
1
  0.33
  1.00
  1.00
1
1
   27.0000
0 2.5 5 7.5 10 12.5 15 17.5 20 22.5 25 27.5 30 32.5 35 37.5
40 42.5 45 47.5 50 52.5 55 57.5 60 62.5 65 67.5 70 72.5 75
77.5 80 82.5 85 87.5 90 92.5 95 97.5 100 102.5 105 107.5 110
112.5 115 117.5 120 122.5 125 127.5 130 132.5 135 137.5 140
142.5 145 147.5 150 152.5 155 157.5 160 162.5 165 167.5 170
172.5 175 177.5 180
0 22.5 45 67.5 90 112.5 135 157.5 180 202.5 225 247.5
270 292.5 315 337.5 360
      18.3       20.2       28.4       40.6       54.6       59.9       62.7       63.3       61.0       56.7
      52.3       48.0       43.9       40.3       36.4       33.6       31.8       30.5       29.7       29.5
      29.9       31.0       31.4       32.3       32.7       32.8       32.8       33.7       34.0       34.5
      35.4       35.9       35.7       36.1       36.7       36.9       37.1       37.6       37.3       37.5
      37.0       36.8       36.3       35.3       34.5       34.3       33.3       33.2       32.4       32.2
      32.2       31.4       30.6       30.2       29.9       29.7       31.2       33.1       36.1       38.5
      42.2       45.0       48.5       52.0       55.5       58.4       58.5       57.1       53.0       41.1
      29.3       20.5       16.0
      18.3       21.4       29.7       41.4       56.5       66.9       70.1       69.9       67.0       62.1
      55.5       50.0       45.3       40.5       36.4       33.1       30.9       29.4       28.5       28.1
      28.7       29.4       30.0       30.3       30.4       31.0       31.2       31.0       31.9       32.4
      32.3       33.0       33.4       33.6       33.3       32.5       32.2       31.9       31.7       31.6
      31.4       31.0       30.7       29.6       29.3       28.7       28.6       28.4       28.1       28.0
      27.1       27.0       26.5       26.0       25.7       26.7       28.0       29.5       32.3       35.6
      39.0       43.6       47.8       52.3       56.9       60.5       62.0       59.3       53.2       40.5
      28.0       19.5       16.0
      18.3       20.2       27.1       38.1       52.2       66.1       75.7       77.7       74.7       68.2
      61.9       54.3       48.1       41.9       36.3       31.4       27.9       25.1       23.3       22.1
      21.7       22.3       22.5       22.1       22.3       23.0       23.3       22.9       23.0       22.9
      23.2       23.4       23.3       23.3       23.4       23.6       23.1       22.6       21.6       21.5
      21.4       20.9       20.7       20.6       20.2       20.8       20.5       20.9       20.3       20.2
      20.5       20.3       20.0       20.3       20.5       22.0       24.2       26.8       30.3       34.5
      38.9       44.0       49.9       57.9       64.4       69.1       68.8       63.6       52.0       38.5
      27.5       19.5       16.0
      18.3       19.7       24.6       30.9       39.4       49.8       61.1       71.2       78.2       79.0
      76.0       71.7       64.2       55.2       47.2       39.5       33.4       27.1       22.8       19.3
      16.9       15.6       14.5       14.7       14.4       13.8       13.8       13.9       13.1       13.5
      12.9       12.3       12.9       12.8       12.5       12.3       12.5       12.1       11.2       11.3
      11.5       11.1       11.3       12.1       12.0       12.6       12.8       13.0       12.9       13.3
      13.1       13.6       14.4       15.8       18.4       22.2       26.9       32.7       38.3       45.6
      53.5       61.8       68.4       72.2       73.8       70.3       62.6       52.0       41.8       31.6
      24.1       18.8       16.0
      18.3       20.0       23.4       26.9       31.2       35.6       39.9       43.5       47.5       50.1
      50.6       49.3       46.2       43.0       40.4       37.5       34.4       31.4       28.6       25.6
      22.9       20.6       17.9       15.6       13.6       12.0       11.1       10.1        9.4        8.6
       7.7        7.1        6.3        5.7        5.3        4.9        4.8        4.5        5.1        5.5
       5.9        6.9        7.6        8.0        8.9        9.8       10.7       11.3       12.8       13.9
      15.6       17.7       19.6       21.9       24.6       27.0       29.8       32.2       35.1       38.6
      41.3       43.9       45.1       45.2       42.9       39.4       35.6       31.8       28.2       24.4
      21.4       17.8       16.0
      18.3       22.6       30.6       39.4       48.7       57.4       66.2       74.2       80.9       87.3
      92.0       96.3       97.7       95.7       95.2       93.6       91.2       88.1       85.4       82.5
      80.5       80.3       80.7       80.7       81.5       82.0       81.9       81.5       80.9       80.4
      80.8       81.0       83.2       86.1       87.8       86.5       87.5       90.8       91.1       90.9
      91.4       91.5       91.7       92.2       92.7       92.8       92.2       91.4       90.2       88.0
      86.8       85.8       86.1       87.4       89.2       90.6       92.0       92.2       92.6       92.9
      93.8       91.0       85.2       79.4       72.0       64.5       55.8       46.8       38.5       29.9
      23.1       17.9       16.0
      18.3       27.8       40.7       52.1       63.3       73.5       82.8       89.6       94.9       98.1
     100.5      101.2      100.5       99.5       97.6       95.3       93.5       91.4       89.8       87.8
      86.8       86.3       85.5       84.8       84.3       83.1       82.6       82.5       81.1       80.4
      80.0       79.1       78.9       78.5       78.8       79.2       79.4       79.5       79.8       80.0
      80.2       80.7       81.1       81.3       81.9       81.7       81.9       82.3       83.3       84.2
      84.2       84.3       85.2       85.7       86.9       87.6       89.4       91.8       93.6       95.9
      97.1       96.9       96.1       93.2       89.8       83.3       75.4       65.3       55.0       43.1
      31.0       20.2       16.0
      18.3       31.2       46.0       58.3       71.0       81.6       91.1       98.2      103.8      107.9
     109.3      109.6      109.2      107.3      104.7      102.1       99.6       97.2       94.7       92.7
      90.3       87.6       84.9       83.1       80.8       78.6       76.7       74.9       73.3       72.0
      70.7       69.6       69.2       68.6       67.8       68.8       67.1       69.7       70.3       70.9
      71.2       72.2       73.1       73.7       74.9       76.6       77.7       79.3       81.1       82.6
      85.5       88.4       91.1       93.1       94.6       96.9       99.3      101.4      103.4      105.5
     106.4      106.9      105.6      102.3       98.3       91.7       84.6       74.9       63.7       51.3
      38.4       23.6       16.0
      18.3       30.1       45.4       58.2       70.9       82.1       91.5       98.9      104.3      107.4
     109.2      109.4      108.3      106.7      104.1      101.7       98.9       96.0       93.5       90.8
      88.1       84.9       82.2       79.8       77.8       75.5       73.5       72.1       70.3       69.2
      68.4       67.5       67.0       66.4       65.6       66.1       66.9       67.7       68.2       68.9
      69.4       69.7       70.6       71.6       72.9       74.7       76.2       78.3       80.2       82.3
      85.3       89.1       92.7       95.4       98.2      100.8      103.4      105.4      107.7      109.9
     111.3      111.5      111.2      109.7      105.8      100.0       92.0       82.5       72.0       58.9
      43.8       27.4       16.0
      18.3       31.2       46.0       58.3       71.0       81.6       91.1       98.2      103.8      107.9
     109.3      109.6      109.2      107.3      104.7      102.1       99.6       97.2       94.7       92.7
      90.3       87.6       84.9       83.1       80.8       78.6       76.7       74.9       73.3       72.0
      70.7       69.6       69.2       68.6       67.8       68.8       67.1       69.7       70.3       70.9
      71.2       72.2       73.1       73.7       74.9       76.6       77.7       79.3       81.1       82.6
      85.5       88.4       91.1       93.1       94.6       96.9       99.3      101.4      103.4      105.5
     106.4      106.9      105.6      102.3       98.3       91.7       84.6       74.9       63.7       51.3
      38.4       23.6       16.0
      18.3       27.8       40.7       52.1       63.3       73.5       82.8       89.6       94.9       98.1
     100.5      101.2      100.5       99.5       97.6       95.3       93.5       91.4       89.8       87.8
      86.8       86.3       85.5       84.8       84.3       83.1       82.6       82.5       81.1       80.4
      80.0       79.1       78.9       78.5       78.8       79.2       79.4       79.5       79.8       80.0
      80.2       80.7       81.1       81.3       81.9       81.7       81.9       82.3       83.3       84.2
      84.2       84.3       85.2       85.7       86.9       87.6       89.4       91.8       93.6       95.9
      97.1       96.9       96.1       93.2       89.8       83.3       75.4       65.3       55.0       43.1
      31.0       20.2       16.0
      18.3       22.6       30.6       39.4       48.7       57.4       66.2       74.2       80.9       87.3
      92.0       96.3       97.7       95.7       95.2       93.6       91.2       88.1       85.4       82.5
      80.5       80.3       80.7       80.7       81.5       82.0       81.9       81.5       80.9       80.4
      80.8       81.0       83.2       86.1       87.8       86.5       87.5       90.8       91.1       90.9
      91.4       91.5       91.7       92.2       92.7       92.8       92.2       91.4       90.2       88.0
      86.8       85.8       86.1       87.4       89.2       90.6       92.0       92.2       92.6       92.9
      93.8       91.0       85.2       79.4       72.0       64.5       55.8       46.8       38.5       29.9
      23.1       17.9       16.0
      18.3       20.0       23.4       26.9       31.2       35.6       39.9       43.5       47.5       50.1
      50.6       49.3       46.2       43.0       40.4       37.5       34.4       31.4       28.6       25.6
      22.9       20.6       17.9       15.6       13.6       12.0       11.1       10.1        9.4        8.6
       7.7        7.1        6.3        5.7        5.3        4.9        4.8        4.5        5.1        5.5
       5.9        6.9        7.6        8.0        8.9        9.8       10.7       11.3       12.8       13.9
      15.6       17.7       19.6       21.9       24.6       27.0       29.8       32.2       35.1       38.6
      41.3       43.9       45.1       45.2       42.9       39.4       35.6       31.8       28.2       24.4
      21.4       17.8       16.0
      18.3       19.7       24.6       30.9       39.4       49.8       61.1       71.2       78.2       79.0
      76.0       71.7       64.2       55.2       47.2       39.5       33.4       27.1       22.8       19.3
      16.9       15.6       14.5       14.7       14.4       13.8       13.8       13.9       13.1       13.5
      12.9       12.3       12.9       12.8       12.5       12.3       12.5       12.1       11.2       11.3
      11.5       11.1       11.3       12.1       12.0       12.6       12.8       13.0       12.9       13.3
      13.1       13.6       14.4       15.8       18.4       22.2       26.9       32.7       38.3       45.6
      53.5       61.8       68.4       72.2       73.8       70.3       62.6       52.0       41.8       31.6
      24.1       18.8       16.0
      18.3       20.2       27.1       38.1       52.2       66.1       75.7       77.7       74.7       68.2
      61.9       54.3       48.1       41.9       36.3       31.4       27.9       25.1       23.3       22.1
      21.7       22.3       22.5       22.1       22.3       23.0       23.3       22.9       23.0       22.9
      23.2       23.4       23.3       23.3       23.4       23.6       23.1       22.6       21.6       21.5
      21.4       20.9       20.7       20.6       20.2       20.8       20.5       20.9       20.3       20.2
      20.5       20.3       20.0       20.3       20.5       22.0       24.2       26.8       30.3       34.5
      38.9       44.0       49.9       57.9       64.4       69.1       68.8       63.6       52.0       38.5
      27.5       19.5       16.0
      18.3       21.4       29.7       41.4       56.5       66.9       70.1       69.9       67.0       62.1
      55.5       50.0       45.3       40.5       36.4       33.1       30.9       29.4       28.5       28.1
      28.7       29.4       30.0       30.3       30.4       31.0       31.2       31.0       31.9       32.4
      32.3       33.0       33.4       33.6       33.3       32.5       32.2       31.9       31.7       31.6
      31.4       31.0       30.7       29.6       29.3       28.7       28.6       28.4       28.1       28.0
      27.1       27.0       26.5       26.0       25.7       26.7       28.0       29.5       32.3       35.6
      39.0       43.6       47.8       52.3       56.9       60.5       62.0       59.3       53.2       40.5
      28.0       19.5       16.0
      18.3       20.2       28.4       40.6       54.6       59.9       62.7       63.3       61.0       56.7
      52.3       48.0       43.9       40.3       36.4       33.6       31.8       30.5       29.7       29.5
      29.9       31.0       31.4       32.3       32.7       32.8       32.8       33.7       34.0       34.5
      35.4       35.9       35.7       36.1       36.7       36.9       37.1       37.6       37.3       37.5
      37.0       36.8       36.3       35.3       34.5       34.3       33.3       33.2       32.4       32.2
      32.2       31.4       30.6       30.2       29.9       29.7       31.2       33.1       36.1       38.5
      42.2       45.0       48.5       52.0       55.5       58.4       58.5       57.1       53.0       41.1
      29.3       20.5       16.0
