IESNA:LM-63-2002
[TEST]25488     
[TESTLAB]LIGHTING SCIENCES, INC.                            
[ISSUEDATE] 7/13/2009
[MANUFAC]COOPER LIGHTING - SHAPER                                  
[LUMCAT]104-CFL/2/13-120V-SWH                                                           
[LUMINAIRE]WHITE FABRIC SHADE SQUARE WALL SCONCE                                         
[LAMP]TWO SYLVANIA 13 WATT CFL LAMPS                                                  
[LAMPCAT]CF13DS/E/830. LUMEN RATING = 1600 LMS.                                          
[OTHER]ONE UNIVERSAL CT13UNVSE BALLASTS OPERATING AT 120 VAC AND 27 WATTS              
TILT=NONE
1
      1600
1
73
17
1
1
  0.33
  1.00
  1.00
1
1
   27.0000
0 2.5 5 7.5 10 12.5 15 17.5 20 22.5 25 27.5 30 32.5 35 37.5
40 42.5 45 47.5 50 52.5 55 57.5 60 62.5 65 67.5 70 72.5 75
77.5 80 82.5 85 87.5 90 92.5 95 97.5 100 102.5 105 107.5 110
112.5 115 117.5 120 122.5 125 127.5 130 132.5 135 137.5 140
142.5 145 147.5 150 152.5 155 157.5 160 162.5 165 167.5 170
172.5 175 177.5 180
0 22.5 45 67.5 90 112.5 135 157.5 180 202.5 225 247.5
270 292.5 315 337.5 360
      20.0       23.0       34.1       49.0       66.8       75.2       81.9       85.4       86.8       85.6
      85.1       84.7       84.2       84.1       85.0       85.7       87.0       89.1       92.3       95.7
      99.1      102.6      106.0      109.0      111.5      114.2      116.4      118.3      120.7      122.7
     124.7      126.0      127.5      128.6      129.0      129.3      129.7      127.6      127.4      126.2
     125.4      123.8      122.0      119.9      117.3      115.2      112.5      110.5      107.9      105.9
     102.3       99.4       96.4       92.9       90.4       87.9       86.2       85.7       84.9       84.5
      84.1       83.7       83.7       84.2       84.9       84.3       81.2       74.7       64.0       47.0
      32.6       22.3       21.8
      20.0       23.5       34.2       48.8       67.1       80.2       86.7       89.3       90.3       88.3
      85.7       83.6       81.7       80.1       79.9       80.0       80.4       82.1       84.7       87.4
      90.7       93.2       96.2       99.5      101.9      103.4      105.5      107.6      109.0      110.8
     112.9      114.3      115.3      116.2      116.9      117.3      117.0      114.9      114.2      113.7
     112.8      111.0      109.7      107.8      105.3      103.6      101.9       99.9       98.0       95.5
      92.3       89.9       86.8       83.5       81.5       79.3       77.8       77.6       77.0       77.5
      77.6       79.0       80.2       82.6       84.4       84.8       81.7       74.6       62.0       45.0
      31.2       21.0       21.8
      20.0       22.6       31.2       44.4       61.2       77.9       90.6       94.6       94.2       90.9
      85.9       81.0       77.7       74.2       70.9       68.3       67.4       67.0       67.5       68.2
      69.8       72.5       74.7       76.7       78.5       79.7       81.5       82.1       83.1       83.9
      84.5       85.7       86.5       87.0       87.6       87.8       87.1       86.5       86.2       85.4
      84.7       83.7       82.7       81.5       80.3       79.8       78.7       77.2       75.2       73.3
      71.6       69.3       67.8       65.7       64.0       63.5       63.7       64.4       66.0       67.4
      70.2       73.5       79.1       84.8       89.3       89.3       85.8       74.0       59.1       43.1
      29.8       21.1       21.8
      20.0       21.1       26.8       34.3       44.4       56.2       69.1       80.8       89.8       92.9
      91.8       88.7       83.6       76.5       69.1       63.0       57.7       53.2       49.6       47.3
      45.9       45.7       46.0       46.0       46.8       47.9       48.4       48.9       48.8       48.8
      49.2       49.1       49.0       49.1       49.4       49.3       48.8       50.7       50.6       50.2
      50.1       49.6       49.8       49.5       49.1       49.1       48.2       47.9       46.8       46.2
      45.2       44.7       44.9       45.6       47.2       50.0       53.8       58.4       63.7       70.2
      77.2       83.8       88.2       90.7       89.7       83.1       72.1       59.8       47.5       36.0
      27.4       22.1       21.8
      20.0       21.8       25.4       29.9       34.7       39.8       44.9       49.9       54.4       57.8
      59.0       58.8       56.6       54.2       52.5       50.4       47.9       45.1       43.0       40.3
      37.8       35.3       32.9       30.8       28.6       27.9       26.9       25.9       25.3       24.2
      23.6       22.9       21.6       20.8       20.6       19.8       19.6       20.6       21.5       21.8
      22.4       23.6       24.5       25.0       25.9       26.7       27.6       28.6       29.7       31.0
      32.7       34.9       37.0       39.5       41.7       44.6       47.0       50.2       53.4       56.7
      59.0       60.1       60.5       58.4       54.5       49.3       45.1       39.9       35.6       31.1
      27.2       24.4       21.8
      20.0       23.8       31.0       40.0       49.5       58.5       67.8       76.7       84.8       91.4
      98.0      103.0      103.4      102.4      101.2      100.1       98.4       95.6       92.3       90.3
      89.2       88.7       89.3       90.0       90.4       91.0       91.0       90.3       90.1       89.8
      89.4       89.3       92.2       94.5       97.6      100.6      103.4      104.3      107.2      109.9
     113.0      116.1      116.7      117.1      117.5      118.2      118.0      117.8      116.6      114.7
     112.9      111.7      111.4      112.1      112.4      113.3      113.2      112.1      111.1      109.3
     109.1      107.5      102.2       94.8       87.0       77.7       68.2       58.1       48.2       38.9
      30.8       25.0       21.8
      20.0       28.0       39.9       51.5       63.6       75.2       86.1       94.4      101.1      106.4
     109.3      111.4      112.2      111.6      110.6      108.8      107.2      105.3      103.8      103.0
     102.3      101.3      101.0      101.2      100.8       99.8       99.5       99.2       97.9       96.9
      96.3       95.9       95.4       95.0       94.4       94.8       95.3       97.2      100.5      101.2
     102.0      102.8      103.7      104.4      105.1      105.7      105.5      105.6      105.4      106.0
     107.0      108.0      108.6      109.0      109.2      110.0      110.9      112.1      113.9      114.9
     115.7      115.1      112.9      110.1      105.7       98.6       89.0       77.5       65.0       51.7
      38.6       27.4       21.8
      20.0       30.7       45.0       58.7       72.0       85.5       97.9      108.3      116.7      123.1
     127.4      129.3      130.1      129.1      127.2      124.9      122.8      120.3      118.0      115.8
     113.2      110.2      107.3      104.8      102.1       99.7       97.2       94.8       93.0       91.3
      89.5       88.3       88.0       90.1       91.9       92.3       93.3       94.7       95.4       96.4
      96.8       97.1       97.9       98.3       99.5      101.1      103.0      105.5      107.0      109.0
     111.0      113.9      117.1      121.0      124.0      125.9      127.8      129.7      131.4      132.3
     132.7      131.5      128.5      124.4      117.5      109.4       98.6       86.3       73.3       59.0
      44.8       30.2       21.8
      20.0       29.9       44.6       59.0       73.8       88.1      101.2      111.5      120.5      127.6
     131.6      134.5      136.2      136.2      134.5      132.4      130.0      126.7      123.8      120.6
     117.1      113.4      109.9      107.0      104.1      101.6       99.2       96.9       95.4       93.9
      92.4       91.7       91.2       90.6       89.8       89.6       89.2       90.5       91.5       92.8
      94.6       95.4       96.1       96.5       97.5       99.5      101.0      104.0      106.6      109.1
     112.7      116.5      120.4      125.6      130.4      135.1      138.1      140.3      142.5      144.1
     144.3      142.7      140.2      136.5      129.5      120.0      109.3       95.8       80.5       64.9
      48.9       32.6       21.8
      20.0       30.7       45.0       58.7       72.0       85.5       97.9      108.3      116.7      123.1
     127.4      129.3      130.1      129.1      127.2      124.9      122.8      120.3      118.0      115.8
     113.2      110.2      107.3      104.8      102.1       99.7       97.2       94.8       93.0       91.3
      89.5       88.3       88.0       90.1       91.9       92.3       93.3       94.7       95.4       96.4
      96.8       97.1       97.9       98.3       99.5      101.1      103.0      105.5      107.0      109.0
     111.0      113.9      117.1      121.0      124.0      125.9      127.8      129.7      131.4      132.3
     132.7      131.5      128.5      124.4      117.5      109.4       98.6       86.3       73.3       59.0
      44.8       30.2       21.8
      20.0       28.0       39.9       51.5       63.6       75.2       86.1       94.4      101.1      106.4
     109.3      111.4      112.2      111.6      110.6      108.8      107.2      105.3      103.8      103.0
     102.3      101.3      101.0      101.2      100.8       99.8       99.5       99.2       97.9       96.9
      96.3       95.9       95.4       95.0       94.4       94.8       95.3       97.2      100.5      101.2
     102.0      102.8      103.7      104.4      105.1      105.7      105.5      105.6      105.4      106.0
     107.0      108.0      108.6      109.0      109.2      110.0      110.9      112.1      113.9      114.9
     115.7      115.1      112.9      110.1      105.7       98.6       89.0       77.5       65.0       51.7
      38.6       27.4       21.8
      20.0       23.8       31.0       40.0       49.5       58.5       67.8       76.7       84.8       91.4
      98.0      103.0      103.4      102.4      101.2      100.1       98.4       95.6       92.3       90.3
      89.2       88.7       89.3       90.0       90.4       91.0       91.0       90.3       90.1       89.8
      89.4       89.3       92.2       94.5       97.6      100.6      103.4      104.3      107.2      109.9
     113.0      116.1      116.7      117.1      117.5      118.2      118.0      117.8      116.6      114.7
     112.9      111.7      111.4      112.1      112.4      113.3      113.2      112.1      111.1      109.3
     109.1      107.5      102.2       94.8       87.0       77.7       68.2       58.1       48.2       38.9
      30.8       25.0       21.8
      20.0       21.8       25.4       29.9       34.7       39.8       44.9       49.9       54.4       57.8
      59.0       58.8       56.6       54.2       52.5       50.4       47.9       45.1       43.0       40.3
      37.8       35.3       32.9       30.8       28.6       27.9       26.9       25.9       25.3       24.2
      23.6       22.9       21.6       20.8       20.6       19.8       19.6       20.6       21.5       21.8
      22.4       23.6       24.5       25.0       25.9       26.7       27.6       28.6       29.7       31.0
      32.7       34.9       37.0       39.5       41.7       44.6       47.0       50.2       53.4       56.7
      59.0       60.1       60.5       58.4       54.5       49.3       45.1       39.9       35.6       31.1
      27.2       24.4       21.8
      20.0       21.1       26.8       34.3       44.4       56.2       69.1       80.8       89.8       92.9
      91.8       88.7       83.6       76.5       69.1       63.0       57.7       53.2       49.6       47.3
      45.9       45.7       46.0       46.0       46.8       47.9       48.4       48.9       48.8       48.8
      49.2       49.1       49.0       49.1       49.4       49.3       48.8       50.7       50.6       50.2
      50.1       49.6       49.8       49.5       49.1       49.1       48.2       47.9       46.8       46.2
      45.2       44.7       44.9       45.6       47.2       50.0       53.8       58.4       63.7       70.2
      77.2       83.8       88.2       90.7       89.7       83.1       72.1       59.8       47.5       36.0
      27.4       22.1       21.8
      20.0       22.6       31.2       44.4       61.2       77.9       90.6       94.6       94.2       90.9
      85.9       81.0       77.7       74.2       70.9       68.3       67.4       67.0       67.5       68.2
      69.8       72.5       74.7       76.7       78.5       79.7       81.5       82.1       83.1       83.9
      84.5       85.7       86.5       87.0       87.6       87.8       87.1       86.5       86.2       85.4
      84.7       83.7       82.7       81.5       80.3       79.8       78.7       77.2       75.2       73.3
      71.6       69.3       67.8       65.7       64.0       63.5       63.7       64.4       66.0       67.4
      70.2       73.5       79.1       84.8       89.3       89.3       85.8       74.0       59.1       43.1
      29.8       21.1       21.8
      20.0       23.5       34.2       48.8       67.1       80.2       86.7       89.3       90.3       88.3
      85.7       83.6       81.7       80.1       79.9       80.0       80.4       82.1       84.7       87.4
      90.7       93.2       96.2       99.5      101.9      103.4      105.5      107.6      109.0      110.8
     112.9      114.3      115.3      116.2      116.9      117.3      117.0      114.9      114.2      113.7
     112.8      111.0      109.7      107.8      105.3      103.6      101.9       99.9       98.0       95.5
      92.3       89.9       86.8       83.5       81.5       79.3       77.8       77.6       77.0       77.5
      77.6       79.0       80.2       82.6       84.4       84.8       81.7       74.6       62.0       45.0
      31.2       21.0       21.8
      20.0       23.0       34.1       49.0       66.8       75.2       81.9       85.4       86.8       85.6
      85.1       84.7       84.2       84.1       85.0       85.7       87.0       89.1       92.3       95.7
      99.1      102.6      106.0      109.0      111.5      114.2      116.4      118.3      120.7      122.7
     124.7      126.0      127.5      128.6      129.0      129.3      129.7      127.6      127.4      126.2
     125.4      123.8      122.0      119.9      117.3      115.2      112.5      110.5      107.9      105.9
     102.3       99.4       96.4       92.9       90.4       87.9       86.2       85.7       84.9       84.5
      84.1       83.7       83.7       84.2       84.9       84.3       81.2       74.7       64.0       47.0
      32.6       22.3       21.8
