IESNA:LM-63-2002
[TEST]25493     
[TESTLAB]LIGHTING SCIENCES, INC.                            
[ISSUEDATE] 7/13/2009
[MANUFAC]COOPER LIGHTING - SHAPER                                  
[LUMCAT]104-CFL/2/18-120V-CCS                                                           
[LUMINAIRE]DARK FABRIC SHADE SQUARE WALL SCONCE
[LAMP]TWO SYLVANIA 18 WATT CFL LAMPS                                                  
[LAMPCAT]CF18DD/E/830/ECO. LUMEN RATING = 2300 LMS.                                      
[OTHER]ONE UNIVERSAL C218UNVSE BALLASTS OPERATING AT 120 VAC AND 33 WATTS              
TILT=NONE
1
      2300
1
73
17
1
1
  0.33
  1.00
  1.00
1
1
   33.0000
0 2.5 5 7.5 10 12.5 15 17.5 20 22.5 25 27.5 30 32.5 35 37.5
40 42.5 45 47.5 50 52.5 55 57.5 60 62.5 65 67.5 70 72.5 75
77.5 80 82.5 85 87.5 90 92.5 95 97.5 100 102.5 105 107.5 110
112.5 115 117.5 120 122.5 125 127.5 130 132.5 135 137.5 140
142.5 145 147.5 150 152.5 155 157.5 160 162.5 165 167.5 170
172.5 175 177.5 180
0 22.5 45 67.5 90 112.5 135 157.5 180 202.5 225 247.5
270 292.5 315 337.5 360
       9.1        5.3        9.1       17.1       27.5       31.2       29.3       29.5       29.9       28.5
      27.5       26.0       24.3       24.6       25.8       26.3       26.9       27.7       29.2       30.4
      31.7       32.6       33.7       35.1       35.9       36.7       37.4       37.5       38.7       39.3
      39.7       40.1       40.8       41.1       40.8       40.7       41.3       40.2       40.2       39.8
      39.7       39.1       38.3       38.3       37.3       36.7       35.6       36.2       36.5       37.1
      37.8       38.1       38.3       40.3       44.2       49.5       57.6       67.1       79.2       91.8
     104.9      117.8      129.8      138.8      145.1      148.9      148.2      139.4      123.3      102.3
      81.3       63.5       56.4
       9.1        7.5       10.3       17.5       27.8       36.5       39.9       38.5       35.6       33.5
      30.9       28.5       26.9       26.7       26.8       27.0       27.5       28.3       28.7       30.5
      31.7       32.3       33.8       35.0       35.7       35.7       36.3       37.3       37.4       38.5
      38.7       38.8       39.8       40.0       39.8       40.2       40.1       37.3       37.0       36.9
      36.7       36.1       35.8       34.6       34.1       33.7       33.9       34.5       34.4       35.1
      36.6       37.7       38.3       40.5       45.5       51.1       59.6       70.1       82.5       95.6
     109.6      123.1      137.1      147.7      155.5      157.3      152.2      140.0      122.5       99.6
      79.0       62.3       56.4
       9.1        7.4        9.8       15.1       26.0       37.0       45.4       53.8       57.5       55.5
      47.2       38.3       32.7       28.2       25.3       24.3       24.0       23.7       24.2       24.6
      25.3       25.8       27.0       27.7       28.2       29.1       29.7       29.4       30.0       30.0
      30.1       30.6       30.9       31.0       31.2       31.2       30.5       28.3       28.4       28.7
      28.5       28.3       27.8       27.4       27.7       28.3       29.9       30.8       30.9       31.9
      32.8       34.9       36.7       41.9       49.3       57.9       69.4       82.3       97.0      112.9
     129.6      143.8      156.0      162.4      163.8      160.3      152.4      137.9      119.7       97.4
      76.4       61.1       56.4
       9.1        7.2       10.0       15.9       26.1       36.5       43.6       49.1       57.1       64.4
      69.7       74.3       72.9       65.0       55.7       45.2       35.7       28.5       24.6       23.2
      22.0       20.8       20.3       20.4       20.4       20.3       20.5       20.2       20.1       19.7
      20.1       20.0       19.5       19.8       19.5       19.1       19.5       18.0       17.9       18.5
      18.5       18.9       19.5       21.0       22.2       22.9       24.2       24.8       26.7       31.0
      37.0       45.4       55.0       66.0       78.4       90.9      104.3      117.4      128.8      137.9
     143.9      146.3      147.5      146.9      144.3      138.7      130.9      118.8      104.1       88.6
      73.1       60.3       56.4
       9.1       12.1       18.6       26.2       35.5       44.8       51.4       54.2       54.8       54.9
      56.0       57.3       57.6       57.2       54.8       51.5       48.0       43.7       39.3       34.4
      29.7       25.3       21.9       19.7       17.7       16.6       15.5       14.4       14.3       13.5
      12.6       12.0       11.6       11.0       10.9       10.7       10.3        9.8       10.6       11.8
      13.4       14.9       17.3       19.8       22.2       25.9       31.1       38.1       45.9       55.9
      65.9       77.2       87.0       98.1      108.0      115.3      122.2      128.2      133.4      137.7
     140.2      140.9      140.8      139.6      136.6      131.2      122.3      110.7       99.5       87.0
      74.1       62.4       56.4
       9.1       18.5       28.7       39.1       50.9       62.3       71.7       80.4       88.1       91.9
      96.0       98.9      100.9      103.8      106.3      108.4      110.0      110.9      111.4      111.1
     111.2      112.4      113.0      113.4      114.5      115.3      116.8      119.0      120.2      122.2
     123.1      124.7      127.0      129.0      130.7      133.1      135.1      131.4      133.6      136.1
     138.5      141.1      143.7      145.5      147.7      148.3      150.1      151.8      154.1      156.1
     157.7      160.2      162.6      165.2      168.3      169.5      170.9      172.4      172.7      172.4
     171.4      168.6      164.4      158.7      152.0      144.1      133.7      122.1      108.0       92.6
      77.9       62.9       56.4
       9.1       23.1       36.2       47.9       60.1       71.0       80.0       87.3       94.8      100.8
     106.3      110.6      113.0      115.9      117.2      118.8      121.0      122.8      124.0      125.8
     127.7      129.8      131.4      133.7      135.3      136.1      137.4      138.7      140.0      141.2
     142.1      143.8      145.9      147.5      148.1      149.3      150.7      154.3      155.4      157.3
     158.8      159.7      161.4      162.9      164.4      165.7      167.6      169.7      171.9      172.5
     173.0      173.4      172.8      173.2      174.2      174.7      175.9      176.7      176.3      175.7
     173.4      170.7      166.4      161.6      156.5      150.2      142.7      132.0      119.0      102.7
      83.9       65.8       56.4
       9.1       26.5       43.2       57.2       70.6       81.0       89.3       95.3       99.4      101.6
     103.9      105.5      106.9      109.2      111.0      113.3      116.2      118.8      120.7      123.0
     125.1      126.6      127.3      128.0      128.6      128.8      129.7      130.7      131.7      132.6
     133.7      134.9      136.1      137.1      137.2      137.8      138.8      137.8      139.3      140.0
     141.5      142.4      143.8      144.4      145.4      146.7      147.5      149.6      151.4      153.4
     155.1      156.4      157.7      158.5      158.6      159.8      160.6      161.4      163.0      165.1
     165.8      166.7      165.5      162.3      158.5      152.2      145.0      135.9      123.4      107.6
      89.9       69.0       56.4
       9.1       24.8       42.3       57.6       72.7       83.9       92.5       97.8      101.7      104.7
     106.2      108.4      111.3      114.1      116.5      119.4      123.0      126.1      129.2      131.4
     133.6      135.6      136.8      137.4      138.5      140.2      141.2      141.6      143.2      144.5
     145.7      146.9      148.2      149.1      149.8      150.2      150.3      154.2      155.4      155.8
     156.7      158.1      158.8      158.7      159.0      159.9      159.9      160.6      161.6      162.2
     163.7      164.7      165.7      165.9      165.4      165.1      165.1      165.0      165.2      165.7
     166.0      166.2      164.5      161.3      156.4      148.9      140.0      130.4      120.1      107.2
      91.2       72.1       56.4
       9.1       26.5       43.2       57.2       70.6       81.0       89.3       95.3       99.4      101.6
     103.9      105.5      106.9      109.2      111.0      113.3      116.2      118.8      120.7      123.0
     125.1      126.6      127.3      128.0      128.6      128.8      129.7      130.7      131.7      132.6
     133.7      134.9      136.1      137.1      137.2      137.8      138.8      137.8      139.3      140.0
     141.5      142.4      143.8      144.4      145.4      146.7      147.5      149.6      151.4      153.4
     155.1      156.4      157.7      158.5      158.6      159.8      160.6      161.4      163.0      165.1
     165.8      166.7      165.5      162.3      158.5      152.2      145.0      135.9      123.4      107.6
      89.9       69.0       56.4
       9.1       23.1       36.2       47.9       60.1       71.0       80.0       87.3       94.8      100.8
     106.3      110.6      113.0      115.9      117.2      118.8      121.0      122.8      124.0      125.8
     127.7      129.8      131.4      133.7      135.3      136.1      137.4      138.7      140.0      141.2
     142.1      143.8      145.9      147.5      148.1      149.3      150.7      154.3      155.4      157.3
     158.8      159.7      161.4      162.9      164.4      165.7      167.6      169.7      171.9      172.5
     173.0      173.4      172.8      173.2      174.2      174.7      175.9      176.7      176.3      175.7
     173.4      170.7      166.4      161.6      156.5      150.2      142.7      132.0      119.0      102.7
      83.9       65.8       56.4
       9.1       18.5       28.7       39.1       50.9       62.3       71.7       80.4       88.1       91.9
      96.0       98.9      100.9      103.8      106.3      108.4      110.0      110.9      111.4      111.1
     111.2      112.4      113.0      113.4      114.5      115.3      116.8      119.0      120.2      122.2
     123.1      124.7      127.0      129.0      130.7      133.1      135.1      131.4      133.6      136.1
     138.5      141.1      143.7      145.5      147.7      148.3      150.1      151.8      154.1      156.1
     157.7      160.2      162.6      165.2      168.3      169.5      170.9      172.4      172.7      172.4
     171.4      168.6      164.4      158.7      152.0      144.1      133.7      122.1      108.0       92.6
      77.9       62.9       56.4
       9.1       12.1       18.6       26.2       35.5       44.8       51.4       54.2       54.8       54.9
      56.0       57.3       57.6       57.2       54.8       51.5       48.0       43.7       39.3       34.4
      29.7       25.3       21.9       19.7       17.7       16.6       15.5       14.4       14.3       13.5
      12.6       12.0       11.6       11.0       10.9       10.7       10.3        9.8       10.6       11.8
      13.4       14.9       17.3       19.8       22.2       25.9       31.1       38.1       45.9       55.9
      65.9       77.2       87.0       98.1      108.0      115.3      122.2      128.2      133.4      137.7
     140.2      140.9      140.8      139.6      136.6      131.2      122.3      110.7       99.5       87.0
      74.1       62.4       56.4
       9.1        7.2       10.0       15.9       26.1       36.5       43.6       49.1       57.1       64.4
      69.7       74.3       72.9       65.0       55.7       45.2       35.7       28.5       24.6       23.2
      22.0       20.8       20.3       20.4       20.4       20.3       20.5       20.2       20.1       19.7
      20.1       20.0       19.5       19.8       19.5       19.1       19.5       18.0       17.9       18.5
      18.5       18.9       19.5       21.0       22.2       22.9       24.2       24.8       26.7       31.0
      37.0       45.4       55.0       66.0       78.4       90.9      104.3      117.4      128.8      137.9
     143.9      146.3      147.5      146.9      144.3      138.7      130.9      118.8      104.1       88.6
      73.1       60.3       56.4
       9.1        7.4        9.8       15.1       26.0       37.0       45.4       53.8       57.5       55.5
      47.2       38.3       32.7       28.2       25.3       24.3       24.0       23.7       24.2       24.6
      25.3       25.8       27.0       27.7       28.2       29.1       29.7       29.4       30.0       30.0
      30.1       30.6       30.9       31.0       31.2       31.2       30.5       28.3       28.4       28.7
      28.5       28.3       27.8       27.4       27.7       28.3       29.9       30.8       30.9       31.9
      32.8       34.9       36.7       41.9       49.3       57.9       69.4       82.3       97.0      112.9
     129.6      143.8      156.0      162.4      163.8      160.3      152.4      137.9      119.7       97.4
      76.4       61.1       56.4
       9.1        7.5       10.3       17.5       27.8       36.5       39.9       38.5       35.6       33.5
      30.9       28.5       26.9       26.7       26.8       27.0       27.5       28.3       28.7       30.5
      31.7       32.3       33.8       35.0       35.7       35.7       36.3       37.3       37.4       38.5
      38.7       38.8       39.8       40.0       39.8       40.2       40.1       37.3       37.0       36.9
      36.7       36.1       35.8       34.6       34.1       33.7       33.9       34.5       34.4       35.1
      36.6       37.7       38.3       40.5       45.5       51.1       59.6       70.1       82.5       95.6
     109.6      123.1      137.1      147.7      155.5      157.3      152.2      140.0      122.5       99.6
      79.0       62.3       56.4
       9.1        5.3        9.1       17.1       27.5       31.2       29.3       29.5       29.9       28.5
      27.5       26.0       24.3       24.6       25.8       26.3       26.9       27.7       29.2       30.4
      31.7       32.6       33.7       35.1       35.9       36.7       37.4       37.5       38.7       39.3
      39.7       40.1       40.8       41.1       40.8       40.7       41.3       40.2       40.2       39.8
      39.7       39.1       38.3       38.3       37.3       36.7       35.6       36.2       36.5       37.1
      37.8       38.1       38.3       40.3       44.2       49.5       57.6       67.1       79.2       91.8
     104.9      117.8      129.8      138.8      145.1      148.9      148.2      139.4      123.3      102.3
      81.3       63.5       56.4
