IESNA:LM-63-2002
[TEST]25492     
[TESTLAB]LIGHTING SCIENCES, INC.                            
[ISSUEDATE] 7/13/2009
[MANUFAC]COOPER LIGHTING - SHAPER                                  
[LUMCAT]104-CFL/2/18-120V-APX                                                           
[LUMINAIRE]TAUPE FABRIC SHADE SQUARE WALL SCONCE                                            
[LAMP]TWO SYLVANIA 18 WATT CFL LAMPS                                                  
[LAMPCAT]CF18DD/E/830/ECO. LUMEN RATING = 2300 LMS.                                      
[OTHER]ONE UNIVERSAL C218UNVSE BALLASTS OPERATING AT 120 VAC AND 33 WATTS              
TILT=NONE
1
      2300
1
73
17
1
1
  0.33
  1.00
  1.00
1
1
   33.0000
0 2.5 5 7.5 10 12.5 15 17.5 20 22.5 25 27.5 30 32.5 35 37.5
40 42.5 45 47.5 50 52.5 55 57.5 60 62.5 65 67.5 70 72.5 75
77.5 80 82.5 85 87.5 90 92.5 95 97.5 100 102.5 105 107.5 110
112.5 115 117.5 120 122.5 125 127.5 130 132.5 135 137.5 140
142.5 145 147.5 150 152.5 155 157.5 160 162.5 165 167.5 170
172.5 175 177.5 180
0 22.5 45 67.5 90 112.5 135 157.5 180 202.5 225 247.5
270 292.5 315 337.5 360
      12.8        5.8       10.4       18.8       30.9       38.2       38.1       38.2       40.5       41.7
      41.4       41.2       41.9       43.1       45.2       46.9       48.2       50.2       53.0       55.2
      57.4       58.8       60.9       62.9       64.0       65.5       66.4       67.3       68.2       68.8
      69.9       70.5       70.8       70.8       71.6       71.7       71.4       69.3       69.0       68.6
      68.6       68.0       67.3       66.9       66.1       64.5       64.5       64.2       64.8       64.8
      64.7       64.4       64.9       66.5       68.6       73.9       81.1       89.5      100.3      112.2
     124.0      134.3      145.0      152.2      157.4      159.4      156.0      146.2      128.5      105.7
      84.1       65.5       57.6
      12.8        8.0       11.9       20.7       33.4       44.4       49.7       50.5       48.2       46.4
      44.1       42.8       42.5       43.3       44.0       45.8       47.3       49.0       50.3       53.1
      55.1       56.9       58.5       60.3       61.6       62.1       62.8       63.9       64.6       65.3
      66.2       66.8       67.0       67.3       67.8       68.0       67.5       64.7       64.6       64.7
      64.1       64.2       63.5       62.8       62.1       60.7       61.2       61.2       62.0       62.2
      62.3       63.3       63.3       64.7       68.4       74.2       81.6       90.0      101.0      113.2
     125.0      138.0      149.7      159.2      165.0      165.4      160.0      146.6      128.0      104.5
      81.6       63.5       57.6
      12.8        8.6       11.5       19.3       32.3       44.3       53.3       64.3       70.5       68.7
      62.2       52.9       46.2       42.0       40.5       39.8       39.5       40.4       41.5       42.5
      43.8       45.1       46.3       47.8       49.0       49.3       50.6       50.6       51.0       51.2
      51.3       51.6       52.4       52.5       52.7       52.8       52.3       51.7       51.6       51.4
      51.3       50.9       50.6       49.6       50.4       50.9       52.5       52.9       53.3       53.9
      54.1       55.1       57.0       61.0       67.9       75.2       85.7       96.9      110.7      124.8
     140.0      154.0      164.5      170.7      171.1      167.4      157.5      142.8      125.0      101.9
      79.8       62.9       57.6
      12.8        9.3       13.1       20.9       32.0       43.9       52.1       58.7       66.9       74.5
      80.6       86.1       86.1       78.9       69.7       59.2       49.6       42.1       38.3       36.6
      35.7       34.4       34.3       34.7       34.7       35.3       35.4       35.2       35.5       35.3
      35.0       34.7       34.4       34.3       34.3       34.3       33.9       33.6       33.8       34.4
      34.7       34.6       35.7       37.2       38.0       39.6       40.2       41.3       41.7       45.2
      51.5       58.8       67.8       78.5       89.3      102.0      114.7      126.3      137.9      146.6
     151.9      155.2      154.9      154.2      150.3      144.2      136.1      123.9      109.3       92.8
      76.5       62.8       57.6
      12.8       14.8       22.0       31.2       41.4       51.1       59.1       62.9       63.6       64.4
      65.3       67.0       68.0       67.3       65.5       62.3       58.2       54.1       50.0       44.8
      39.8       35.4       31.7       28.9       27.0       25.9       24.7       23.6       23.2       22.4
      21.6       20.9       19.9       19.5       19.2       18.6       18.4       17.9       19.1       20.3
      22.3       24.4       27.0       29.7       32.5       36.8       41.9       49.5       58.0       68.0
      78.5       89.7       99.6      110.7      120.2      127.6      134.0      139.5      144.4      147.8
     149.5      149.9      148.6      146.5      142.4      135.8      126.4      114.6      102.3       89.2
      76.1       63.5       57.6
      12.8       22.6       33.0       45.2       57.7       68.3       78.2       87.7       95.7      100.8
     104.9      108.5      112.6      116.3      120.1      123.1      124.5      125.8      126.7      126.5
     126.6      127.5      128.0      128.3      129.2      129.9      131.5      133.4      134.0      135.4
     137.1      138.3      139.7      141.4      143.1      144.8      147.5      157.7      160.2      162.7
     165.0      167.6      170.4      172.4      174.5      175.5      177.4      179.2      180.8      182.8
     183.9      185.8      187.4      189.0      191.0      191.6      191.4      191.1      189.5      186.7
     184.2      180.4      174.9      167.4      159.6      150.4      139.5      126.6      112.3       95.7
      80.0       64.0       57.6
      12.8       28.7       43.3       55.9       69.0       80.4       90.0       97.6      105.9      112.9
     117.7      121.9      124.8      126.5      128.7      130.3      131.5      133.0      135.1      137.1
     138.9      140.7      142.8      144.8      145.8      147.2      148.5      149.4      150.9      152.1
     152.7      154.8      157.2      158.9      159.7      161.0      162.1      165.9      167.2      169.0
     170.5      171.3      173.0      174.5      175.5      177.0      179.2      181.5      183.6      184.7
     185.9      186.2      185.9      186.0      186.2      186.7      187.6      188.4      187.7      186.9
     184.5      180.9      175.9      169.8      164.1      157.1      148.1      136.7      122.6      105.2
      85.8       66.7       57.6
      12.8       32.8       50.7       67.1       81.6       93.0      101.9      108.4      112.7      115.5
     116.9      118.7      121.2      123.6      125.8      128.6      130.7      133.2      136.2      138.6
     140.5      141.4      141.9      142.5      142.8      144.1      144.8      145.4      147.0      148.0
     148.6      150.3      151.8      152.7      153.4      154.0      154.4      152.3      153.4      154.9
     155.9      156.6      157.5      158.0      158.7      160.2      161.1      163.1      164.5      166.4
     168.6      170.4      171.1      171.7      172.8      172.7      173.7      174.0      175.2      176.4
     177.0      177.0      175.3      171.5      166.7      159.1      150.8      140.1      126.6      109.9
      91.0       69.3       57.6
      12.8       31.7       50.6       67.5       83.4       95.9      104.9      110.9      115.3      117.5
     120.0      122.4      125.4      127.8      131.2      134.4      138.0      141.4      144.1      147.1
     149.1      150.8      152.0      152.7      154.0      155.6      156.7      157.2      158.9      160.5
     161.5      163.0      164.9      165.9      165.9      166.2      167.0      168.9      170.0      170.4
     171.3      172.6      173.2      173.1      173.2      174.0      174.0      174.5      175.7      176.4
     177.4      178.7      180.3      180.5      180.6      179.7      179.4      179.5      179.3      178.5
     178.4      177.0      174.5      170.9      164.0      155.0      145.7      135.0      122.9      109.1
      92.3       72.1       57.6
      12.8       32.8       50.7       67.1       81.6       93.0      101.9      108.4      112.7      115.5
     116.9      118.7      121.2      123.6      125.8      128.6      130.7      133.2      136.2      138.6
     140.5      141.4      141.9      142.5      142.8      144.1      144.8      145.4      147.0      148.0
     148.6      150.3      151.8      152.7      153.4      154.0      154.4      152.3      153.4      154.9
     155.9      156.6      157.5      158.0      158.7      160.2      161.1      163.1      164.5      166.4
     168.6      170.4      171.1      171.7      172.8      172.7      173.7      174.0      175.2      176.4
     177.0      177.0      175.3      171.5      166.7      159.1      150.8      140.1      126.6      109.9
      91.0       69.3       57.6
      12.8       28.7       43.3       55.9       69.0       80.4       90.0       97.6      105.9      112.9
     117.7      121.9      124.8      126.5      128.7      130.3      131.5      133.0      135.1      137.1
     138.9      140.7      142.8      144.8      145.8      147.2      148.5      149.4      150.9      152.1
     152.7      154.8      157.2      158.9      159.7      161.0      162.1      165.9      167.2      169.0
     170.5      171.3      173.0      174.5      175.5      177.0      179.2      181.5      183.6      184.7
     185.9      186.2      185.9      186.0      186.2      186.7      187.6      188.4      187.7      186.9
     184.5      180.9      175.9      169.8      164.1      157.1      148.1      136.7      122.6      105.2
      85.8       66.7       57.6
      12.8       22.6       33.0       45.2       57.7       68.3       78.2       87.7       95.7      100.8
     104.9      108.5      112.6      116.3      120.1      123.1      124.5      125.8      126.7      126.5
     126.6      127.5      128.0      128.3      129.2      129.9      131.5      133.4      134.0      135.4
     137.1      138.3      139.7      141.4      143.1      144.8      147.5      157.7      160.2      162.7
     165.0      167.6      170.4      172.4      174.5      175.5      177.4      179.2      180.8      182.8
     183.9      185.8      187.4      189.0      191.0      191.6      191.4      191.1      189.5      186.7
     184.2      180.4      174.9      167.4      159.6      150.4      139.5      126.6      112.3       95.7
      80.0       64.0       57.6
      12.8       14.8       22.0       31.2       41.4       51.1       59.1       62.9       63.6       64.4
      65.3       67.0       68.0       67.3       65.5       62.3       58.2       54.1       50.0       44.8
      39.8       35.4       31.7       28.9       27.0       25.9       24.7       23.6       23.2       22.4
      21.6       20.9       19.9       19.5       19.2       18.6       18.4       17.9       19.1       20.3
      22.3       24.4       27.0       29.7       32.5       36.8       41.9       49.5       58.0       68.0
      78.5       89.7       99.6      110.7      120.2      127.6      134.0      139.5      144.4      147.8
     149.5      149.9      148.6      146.5      142.4      135.8      126.4      114.6      102.3       89.2
      76.1       63.5       57.6
      12.8        9.3       13.1       20.9       32.0       43.9       52.1       58.7       66.9       74.5
      80.6       86.1       86.1       78.9       69.7       59.2       49.6       42.1       38.3       36.6
      35.7       34.4       34.3       34.7       34.7       35.3       35.4       35.2       35.5       35.3
      35.0       34.7       34.4       34.3       34.3       34.3       33.9       33.6       33.8       34.4
      34.7       34.6       35.7       37.2       38.0       39.6       40.2       41.3       41.7       45.2
      51.5       58.8       67.8       78.5       89.3      102.0      114.7      126.3      137.9      146.6
     151.9      155.2      154.9      154.2      150.3      144.2      136.1      123.9      109.3       92.8
      76.5       62.8       57.6
      12.8        8.6       11.5       19.3       32.3       44.3       53.3       64.3       70.5       68.7
      62.2       52.9       46.2       42.0       40.5       39.8       39.5       40.4       41.5       42.5
      43.8       45.1       46.3       47.8       49.0       49.3       50.6       50.6       51.0       51.2
      51.3       51.6       52.4       52.5       52.7       52.8       52.3       51.7       51.6       51.4
      51.3       50.9       50.6       49.6       50.4       50.9       52.5       52.9       53.3       53.9
      54.1       55.1       57.0       61.0       67.9       75.2       85.7       96.9      110.7      124.8
     140.0      154.0      164.5      170.7      171.1      167.4      157.5      142.8      125.0      101.9
      79.8       62.9       57.6
      12.8        8.0       11.9       20.7       33.4       44.4       49.7       50.5       48.2       46.4
      44.1       42.8       42.5       43.3       44.0       45.8       47.3       49.0       50.3       53.1
      55.1       56.9       58.5       60.3       61.6       62.1       62.8       63.9       64.6       65.3
      66.2       66.8       67.0       67.3       67.8       68.0       67.5       64.7       64.6       64.7
      64.1       64.2       63.5       62.8       62.1       60.7       61.2       61.2       62.0       62.2
      62.3       63.3       63.3       64.7       68.4       74.2       81.6       90.0      101.0      113.2
     125.0      138.0      149.7      159.2      165.0      165.4      160.0      146.6      128.0      104.5
      81.6       63.5       57.6
      12.8        5.8       10.4       18.8       30.9       38.2       38.1       38.2       40.5       41.7
      41.4       41.2       41.9       43.1       45.2       46.9       48.2       50.2       53.0       55.2
      57.4       58.8       60.9       62.9       64.0       65.5       66.4       67.3       68.2       68.8
      69.9       70.5       70.8       70.8       71.6       71.7       71.4       69.3       69.0       68.6
      68.6       68.0       67.3       66.9       66.1       64.5       64.5       64.2       64.8       64.8
      64.7       64.4       64.9       66.5       68.6       73.9       81.1       89.5      100.3      112.2
     124.0      134.3      145.0      152.2      157.4      159.4      156.0      146.2      128.5      105.7
      84.1       65.5       57.6
