IESNA:LM-63-2002
[TEST]25489     
[TESTLAB]LIGHTING SCIENCES, INC.                            
[ISSUEDATE] 7/13/2009
[MANUFAC]COOPER LIGHTING - SHAPER                                  
[LUMCAT]104-CFL/2/13-120V-APX                                                           
[LUMINAIRE]TAUPE FABRIC SHADE SQUARE WALL SCONCE                                            
[LAMP]TWO SYLVANIA 13 WATT CFL LAMPS                                                  
[LAMPCAT]CF13DS/E/830. LUMEN RATING = 1600 LMS.                                          
[OTHER]ONE UNIVERSAL CT13UNVSE BALLASTS OPERATING AT 120 VAC AND 27 WATTS              
TILT=NONE
1
      1600
1
73
17
1
1
  0.33
  1.00
  1.00
1
1
   27.0000
0 2.5 5 7.5 10 12.5 15 17.5 20 22.5 25 27.5 30 32.5 35 37.5
40 42.5 45 47.5 50 52.5 55 57.5 60 62.5 65 67.5 70 72.5 75
77.5 80 82.5 85 87.5 90 92.5 95 97.5 100 102.5 105 107.5 110
112.5 115 117.5 120 122.5 125 127.5 130 132.5 135 137.5 140
142.5 145 147.5 150 152.5 155 157.5 160 162.5 165 167.5 170
172.5 175 177.5 180
0 22.5 45 67.5 90 112.5 135 157.5 180 202.5 225 247.5
270 292.5 315 337.5 360
      19.7       21.0       30.3       44.1       59.7       67.0       70.9       72.4       71.5       68.4
      65.1       62.2       59.3       56.7       53.9       51.9       51.3       50.9       51.0       51.8
      53.0       54.4       55.6       56.6       57.4       57.7       58.2       59.2       59.8       60.8
      61.2       61.9       62.1       62.4       62.9       63.3       63.6       63.8       64.0       63.8
      63.7       62.9       62.1       62.0       61.0       59.3       59.1       58.5       57.7       57.0
      56.2       55.0       53.6       52.2       51.6       51.0       51.3       53.0       54.6       56.1
      58.3       60.4       62.3       64.2       67.2       68.5       68.2       64.9       58.4       44.5
      31.4       21.8       17.7
      19.7       22.5       31.5       45.1       61.6       72.5       76.9       78.0       76.5       72.2
      67.0       62.8       59.0       55.2       52.0       49.9       48.9       48.3       47.9       49.0
      50.2       51.3       52.2       53.3       54.0       54.4       54.8       55.0       55.9       56.6
      56.7       57.2       58.1       58.4       58.2       58.4       58.6       56.9       56.7       56.6
      56.2       56.0       55.5       54.3       53.5       53.1       52.4       52.2       51.5       50.8
      50.4       49.0       48.5       47.0       46.5       45.9       46.4       48.0       49.7       51.3
      53.9       57.2       60.2       63.4       67.5       69.8       69.6       65.6       57.5       43.2
      30.1       20.8       17.7
      19.7       21.8       29.2       41.0       56.1       70.9       82.0       84.3       82.0       76.1
      70.5       63.7       57.9       52.9       48.5       44.6       41.3       39.4       39.0       38.7
      39.0       39.8       40.5       41.0       41.5       41.9       42.4       41.9       42.1       41.9
      41.9       42.5       42.6       42.5       42.2       41.8       41.7       41.5       40.8       40.3
      40.4       39.9       39.6       39.5       39.1       39.7       39.9       39.7       38.9       38.5
      38.3       37.8       36.8       36.4       36.7       37.0       38.5       40.3       43.1       46.6
      49.8       54.3       59.8       66.2       72.7       75.8       74.2       67.4       54.9       40.7
      28.4       20.1       17.7
      19.7       20.9       26.1       32.7       42.0       53.2       65.1       75.0       82.0       83.8
      81.3       76.6       70.2       61.8       53.5       46.7       41.5       36.2       31.9       29.4
      27.3       26.7       26.3       25.6       25.7       26.1       26.0       25.6       25.6       25.3
      24.8       24.5       24.2       23.9       24.1       23.9       23.7       23.2       23.1       22.8
      22.9       22.5       22.9       23.7       23.6       24.2       24.3       24.3       24.3       24.3
      23.8       24.1       24.5       25.6       28.1       30.7       35.2       39.8       45.0       51.9
      59.3       66.1       72.4       75.5       77.1       73.3       64.3       53.5       43.2       32.7
      24.8       19.6       17.7
      19.7       21.1       25.1       29.7       34.4       38.9       43.3       48.4       53.1       55.6
      56.7       55.4       52.6       49.6       46.5       43.4       40.9       37.9       34.7       31.9
      29.2       26.6       23.9       21.5       19.7       18.1       16.8       16.0       15.0       14.0
      13.3       12.2       11.3       10.5        9.7        9.0        9.3        9.3        9.7       10.5
      11.1       12.0       13.0       13.5       14.7       15.2       16.4       17.5       18.9       20.1
      21.8       24.1       26.1       28.5       30.9       33.6       36.4       39.0       42.4       46.1
      48.7       50.5       51.5       50.8       47.8       43.6       39.5       35.4       31.0       26.8
      23.3       19.5       17.7
      19.7       24.7       33.6       42.5       52.4       62.9       72.4       80.2       88.1       95.4
     100.6      105.4      106.1      105.0      105.3      104.5      103.0      100.7       98.4       95.4
      93.8       94.1       94.6       95.2       96.3       97.2       97.3       96.8       96.3       95.7
      95.9       95.7       95.0       97.4      100.3      102.8      108.6      110.2      110.5      110.6
     110.6      111.4      111.7      111.5      112.1      112.0      112.1      111.4      109.7      107.7
     105.4      103.9      104.3      104.8      105.2      106.1      105.8      105.3      104.4      103.1
     103.4      102.2       96.5       89.3       82.1       73.3       64.2       54.5       44.7       35.1
      27.6       20.9       17.7
      19.7       30.5       44.6       56.9       69.3       80.7       91.2       98.7      104.8      109.4
     111.3      112.7      113.2      111.9      110.4      108.2      106.1      104.2      102.1      101.1
     100.1       99.2       99.0       98.6       98.3       97.4       97.0       96.9       95.6       94.4
      94.1       93.6       93.0       93.2       93.5       94.6       95.0       95.9       96.4       96.3
      96.3       96.7       96.8       96.9       97.4       97.7       97.8       97.7       97.5       98.5
      99.2       99.9      100.0      100.3      101.3      101.9      103.4      105.0      107.3      108.9
     110.1      110.3      108.8      106.4      101.9       95.5       86.7       75.4       63.9       50.3
      36.7       23.9       17.7
      19.7       34.1       50.5       64.9       78.6       90.0      100.7      109.3      115.9      119.9
     122.8      123.4      122.1      120.6      118.6      115.9      113.2      110.7      108.6      106.3
     103.6      101.7       99.2       96.4       93.9       92.5       90.3       88.2       86.8       85.2
      83.8       82.9       82.4       81.8       81.8       81.7       82.9       84.7       85.5       86.3
      86.5       86.5       87.1       88.0       89.0       89.9       91.3       93.1       94.9       96.4
      97.9      100.9      103.8      106.7      108.8      111.2      113.3      115.0      117.3      118.6
     119.7      120.2      118.6      115.0      110.2      103.9       94.9       84.2       72.6       59.0
      43.8       27.8       17.7
      19.7       33.2       50.1       64.0       78.0       90.5      101.1      109.2      115.2      119.2
     121.3      121.8      120.6      119.1      116.9      114.2      111.0      108.2      105.3      102.8
     100.0       97.5       94.4       91.7       89.4       87.4       85.4       83.2       81.6       80.4
      79.2       78.6       77.6       77.0       77.3       77.6       79.0       80.1       80.7       81.6
      82.1       82.1       82.8       83.9       84.9       86.2       88.3       90.7       92.4       94.5
      97.4      100.8      104.7      109.2      112.3      115.5      118.1      120.4      122.7      125.1
     126.2      127.4      127.0      124.4      120.6      113.7      104.6       93.6       80.3       65.4
      49.9       31.7       17.7
      19.7       34.1       50.5       64.9       78.6       90.0      100.7      109.3      115.9      119.9
     122.8      123.4      122.1      120.6      118.6      115.9      113.2      110.7      108.6      106.3
     103.6      101.7       99.2       96.4       93.9       92.5       90.3       88.2       86.8       85.2
      83.8       82.9       82.4       81.8       81.8       81.7       82.9       84.7       85.5       86.3
      86.5       86.5       87.1       88.0       89.0       89.9       91.3       93.1       94.9       96.4
      97.9      100.9      103.8      106.7      108.8      111.2      113.3      115.0      117.3      118.6
     119.7      120.2      118.6      115.0      110.2      103.9       94.9       84.2       72.6       59.0
      43.8       27.8       17.7
      19.7       30.5       44.6       56.9       69.3       80.7       91.2       98.7      104.8      109.4
     111.3      112.7      113.2      111.9      110.4      108.2      106.1      104.2      102.1      101.1
     100.1       99.2       99.0       98.6       98.3       97.4       97.0       96.9       95.6       94.4
      94.1       93.6       93.0       93.2       93.5       94.6       95.0       95.9       96.4       96.3
      96.3       96.7       96.8       96.9       97.4       97.7       97.8       97.7       97.5       98.5
      99.2       99.9      100.0      100.3      101.3      101.9      103.4      105.0      107.3      108.9
     110.1      110.3      108.8      106.4      101.9       95.5       86.7       75.4       63.9       50.3
      36.7       23.9       17.7
      19.7       24.7       33.6       42.5       52.4       62.9       72.4       80.2       88.1       95.4
     100.6      105.4      106.1      105.0      105.3      104.5      103.0      100.7       98.4       95.4
      93.8       94.1       94.6       95.2       96.3       97.2       97.3       96.8       96.3       95.7
      95.9       95.7       95.0       97.4      100.3      102.8      108.6      110.2      110.5      110.6
     110.6      111.4      111.7      111.5      112.1      112.0      112.1      111.4      109.7      107.7
     105.4      103.9      104.3      104.8      105.2      106.1      105.8      105.3      104.4      103.1
     103.4      102.2       96.5       89.3       82.1       73.3       64.2       54.5       44.7       35.1
      27.6       20.9       17.7
      19.7       21.1       25.1       29.7       34.4       38.9       43.3       48.4       53.1       55.6
      56.7       55.4       52.6       49.6       46.5       43.4       40.9       37.9       34.7       31.9
      29.2       26.6       23.9       21.5       19.7       18.1       16.8       16.0       15.0       14.0
      13.3       12.2       11.3       10.5        9.7        9.0        9.3        9.3        9.7       10.5
      11.1       12.0       13.0       13.5       14.7       15.2       16.4       17.5       18.9       20.1
      21.8       24.1       26.1       28.5       30.9       33.6       36.4       39.0       42.4       46.1
      48.7       50.5       51.5       50.8       47.8       43.6       39.5       35.4       31.0       26.8
      23.3       19.5       17.7
      19.7       20.9       26.1       32.7       42.0       53.2       65.1       75.0       82.0       83.8
      81.3       76.6       70.2       61.8       53.5       46.7       41.5       36.2       31.9       29.4
      27.3       26.7       26.3       25.6       25.7       26.1       26.0       25.6       25.6       25.3
      24.8       24.5       24.2       23.9       24.1       23.9       23.7       23.2       23.1       22.8
      22.9       22.5       22.9       23.7       23.6       24.2       24.3       24.3       24.3       24.3
      23.8       24.1       24.5       25.6       28.1       30.7       35.2       39.8       45.0       51.9
      59.3       66.1       72.4       75.5       77.1       73.3       64.3       53.5       43.2       32.7
      24.8       19.6       17.7
      19.7       21.8       29.2       41.0       56.1       70.9       82.0       84.3       82.0       76.1
      70.5       63.7       57.9       52.9       48.5       44.6       41.3       39.4       39.0       38.7
      39.0       39.8       40.5       41.0       41.5       41.9       42.4       41.9       42.1       41.9
      41.9       42.5       42.6       42.5       42.2       41.8       41.7       41.5       40.8       40.3
      40.4       39.9       39.6       39.5       39.1       39.7       39.9       39.7       38.9       38.5
      38.3       37.8       36.8       36.4       36.7       37.0       38.5       40.3       43.1       46.6
      49.8       54.3       59.8       66.2       72.7       75.8       74.2       67.4       54.9       40.7
      28.4       20.1       17.7
      19.7       22.5       31.5       45.1       61.6       72.5       76.9       78.0       76.5       72.2
      67.0       62.8       59.0       55.2       52.0       49.9       48.9       48.3       47.9       49.0
      50.2       51.3       52.2       53.3       54.0       54.4       54.8       55.0       55.9       56.6
      56.7       57.2       58.1       58.4       58.2       58.4       58.6       56.9       56.7       56.6
      56.2       56.0       55.5       54.3       53.5       53.1       52.4       52.2       51.5       50.8
      50.4       49.0       48.5       47.0       46.5       45.9       46.4       48.0       49.7       51.3
      53.9       57.2       60.2       63.4       67.5       69.8       69.6       65.6       57.5       43.2
      30.1       20.8       17.7
      19.7       21.0       30.3       44.1       59.7       67.0       70.9       72.4       71.5       68.4
      65.1       62.2       59.3       56.7       53.9       51.9       51.3       50.9       51.0       51.8
      53.0       54.4       55.6       56.6       57.4       57.7       58.2       59.2       59.8       60.8
      61.2       61.9       62.1       62.4       62.9       63.3       63.6       63.8       64.0       63.8
      63.7       62.9       62.1       62.0       61.0       59.3       59.1       58.5       57.7       57.0
      56.2       55.0       53.6       52.2       51.6       51.0       51.3       53.0       54.6       56.1
      58.3       60.4       62.3       64.2       67.2       68.5       68.2       64.9       58.4       44.5
      31.4       21.8       17.7
