IESNA:LM-63-2002
[TEST]25491     
[TESTLAB]LIGHTING SCIENCES, INC.                            
[ISSUEDATE] 7/13/2009
[MANUFAC]COOPER LIGHTING - SHAPER                                  
[LUMCAT]104-CFL/2/18-120V-SWH                                                           
[LUMINAIRE]WHITE FABRIC SHADE SQUARE WALL SCONCE                                             
[LAMP]TWO SYLVANIA 18 WATT CFL LAMPS                                                  
[LAMPCAT]CF18DD/E/830/ECO. LUMEN RATING = 2300 LMS.                                      
[OTHER]ONE UNIVERSAL C218UNVSE BALLASTS OPERATING AT 120 VAC AND 33 WATTS              
TILT=NONE
1
      2300
1
73
17
1
1
  0.33
  1.00
  1.00
1
1
   33.0000
0 2.5 5 7.5 10 12.5 15 17.5 20 22.5 25 27.5 30 32.5 35 37.5
40 42.5 45 47.5 50 52.5 55 57.5 60 62.5 65 67.5 70 72.5 75
77.5 80 82.5 85 87.5 90 92.5 95 97.5 100 102.5 105 107.5 110
112.5 115 117.5 120 122.5 125 127.5 130 132.5 135 137.5 140
142.5 145 147.5 150 152.5 155 157.5 160 162.5 165 167.5 170
172.5 175 177.5 180
0 22.5 45 67.5 90 112.5 135 157.5 180 202.5 225 247.5
270 292.5 315 337.5 360
      12.0        6.9       13.5       24.5       38.8       47.1       49.6       53.2       58.0       61.7
      64.1       67.0       70.8       75.8       80.4       85.4       91.0       96.3      101.6      106.6
     111.9      116.8      121.5      125.0      128.9      132.6      135.6      138.5      141.1      143.4
     145.9      147.8      148.9      150.3      151.3      151.6      152.2      149.0      148.8      147.7
     146.6      145.6      143.7      141.3      138.5      135.7      133.2      131.1      129.8      127.5
     125.3      122.5      119.7      118.4      118.7      120.3      124.4      130.5      138.3      146.0
     155.0      162.7      170.0      175.5      177.1      176.4      171.1      157.8      137.2      111.7
      87.0       66.4       59.1
      12.0        8.9       14.5       25.1       39.9       53.0       60.2       62.8       63.2       64.0
      64.6       66.0       68.6       72.0       76.9       81.4       85.7       90.4       95.1      100.0
     104.8      109.2      113.4      117.4      120.3      123.8      126.6      128.6      131.5      133.7
     135.7      137.5      138.7      140.1      140.8      141.0      141.6      139.7      139.2      138.0
     137.2      136.0      134.1      132.4      129.8      127.3      125.3      124.4      122.4      120.8
     118.4      116.7      115.4      114.2      114.9      117.6      122.5      128.5      136.4      146.1
     155.2      165.6      174.6      181.9      185.2      183.1      175.1      159.0      136.9      111.0
      85.1       64.9       59.1
      12.0        8.8       13.8       23.5       38.6       51.5       63.1       75.6       82.0       81.2
      76.1       69.6       66.4       65.2       65.6       67.5       70.2       73.2       75.6       79.6
      83.0       86.4       89.6       93.0       95.7       98.3      100.6      101.6      103.6      105.0
     105.9      107.5      108.7      109.2      110.3      110.5      110.6      110.4      109.9      109.9
     109.0      107.7      106.1      105.2      104.5      103.8      103.7      102.9      101.2      100.1
      99.4       98.5       98.1      100.3      105.0      111.0      119.6      128.5      140.1      153.3
     166.4      177.7      186.8      190.1      189.4      182.4      171.1      153.4      132.4      107.1
      82.9       64.4       59.1
      12.0        9.6       14.0       23.1       35.4       47.8       56.8       64.3       74.2       83.8
      91.0       97.9       98.1       92.0       83.8       75.7       68.2       63.4       60.8       61.6
      62.1       62.6       63.4       65.3       66.8       67.6       69.0       70.2       71.2       71.8
      71.9       72.1       72.9       73.1       73.3       73.4       73.1       74.3       74.3       74.1
      74.4       73.7       74.7       75.0       76.0       76.0       76.7       76.5       76.0       78.7
      83.5       89.8       97.7      107.3      117.0      128.4      139.8      150.8      160.4      167.8
     171.5      172.8      171.1      167.8      162.7      154.6      144.6      130.2      114.7       96.3
      79.6       64.9       59.1
      12.0       13.7       20.4       29.8       40.1       50.5       59.0       63.0       64.6       66.7
      69.0       71.8       74.1       74.5       73.7       71.6       68.9       65.8       62.4       58.1
      53.9       50.1       47.2       45.4       44.0       43.1       42.4       41.7       42.0       41.5
      40.9       40.4       40.0       39.4       39.2       38.8       38.3       39.3       40.5       42.0
      43.9       45.9       48.5       50.9       53.8       57.2       62.2       69.2       77.4       86.7
      97.2      107.4      117.1      127.6      135.8      142.7      148.3      152.7      156.3      158.9
     159.2      158.6      156.4      153.3      148.5      140.8      130.2      117.1      104.4       90.4
      77.5       65.2       59.1
      12.0       20.2       30.0       40.5       53.2       65.9       76.9       86.5       96.3      102.0
     107.1      111.6      114.8      119.1      123.1      126.2      128.1      129.5      130.4      129.9
     129.9      130.8      131.2      131.4      132.4      133.3      134.6      136.9      137.7      139.3
     140.8      142.3      144.3      146.5      148.3      150.5      153.5      155.5      158.1      159.9
     162.7      165.7      168.1      171.3      173.5      174.8      176.2      178.8      181.3      183.2
     186.0      188.0      190.7      192.8      195.4      196.4      197.2      196.7      195.7      194.5
     191.6      187.8      181.1      173.7      164.2      153.9      141.9      127.5      112.6       95.5
      79.8       65.6       59.1
      12.0       23.9       37.0       50.3       63.8       75.6       87.1       97.6      108.1      117.2
     124.3      130.7      135.8      138.7      141.3      143.2      144.9      146.0      147.2      148.3
     148.9      150.2      151.7      152.3      153.1      153.9      154.6      156.4      156.9      158.1
     160.1      162.5      164.4      166.4      167.8      168.8      170.7      174.0      175.9      177.2
     178.8      180.8      182.9      184.8      187.4      189.6      193.3      196.5      200.1      202.6
     204.1      205.4      205.6      205.8      206.2      206.6      206.9      206.5      204.7      202.2
     198.2      192.2      184.8      177.9      169.7      161.3      149.9      137.2      121.6      103.3
      84.9       67.4       59.1
      12.0       27.4       43.3       58.3       73.7       87.7       98.5      106.4      113.5      118.4
     121.7      125.0      127.9      131.2      135.3      139.1      142.1      146.0      149.5      151.9
     153.9      155.2      155.8      156.0      156.6      158.3      159.3      160.1      161.9      163.5
     164.9      166.8      168.2      169.5      170.8      171.5      171.9      171.0      171.9      173.4
     174.5      175.1      176.0      176.8      177.6      179.1      180.4      182.2      184.8      186.4
     188.9      190.7      190.9      191.4      191.8      192.2      191.6      192.4      192.3      192.5
     191.9      189.7      185.6      180.6      172.5      162.7      152.2      139.5      125.3      107.6
      88.9       69.5       59.1
      12.0       25.4       42.7       59.9       76.6       90.3      101.8      110.8      117.3      121.1
     124.5      127.5      130.4      134.0      137.4      141.5      145.8      150.1      154.2      157.3
     159.8      161.6      163.2      164.8      166.6      168.0      169.4      170.3      172.2      174.3
     176.4      178.2      179.6      180.7      181.6      182.2      182.4      187.4      188.6      189.2
     190.5      191.0      191.7      192.0      191.7      192.2      192.1      192.5      193.1      193.9
     194.4      195.5      196.8      196.4      195.8      194.9      194.1      193.7      192.9      192.6
     191.6      189.3      185.4      179.7      170.6      159.1      147.4      134.6      120.7      106.0
      89.2       70.9       59.1
      12.0       27.4       43.3       58.3       73.7       87.7       98.5      106.4      113.5      118.4
     121.7      125.0      127.9      131.2      135.3      139.1      142.1      146.0      149.5      151.9
     153.9      155.2      155.8      156.0      156.6      158.3      159.3      160.1      161.9      163.5
     164.9      166.8      168.2      169.5      170.8      171.5      171.9      171.0      171.9      173.4
     174.5      175.1      176.0      176.8      177.6      179.1      180.4      182.2      184.8      186.4
     188.9      190.7      190.9      191.4      191.8      192.2      191.6      192.4      192.3      192.5
     191.9      189.7      185.6      180.6      172.5      162.7      152.2      139.5      125.3      107.6
      88.9       69.5       59.1
      12.0       23.9       37.0       50.3       63.8       75.6       87.1       97.6      108.1      117.2
     124.3      130.7      135.8      138.7      141.3      143.2      144.9      146.0      147.2      148.3
     148.9      150.2      151.7      152.3      153.1      153.9      154.6      156.4      156.9      158.1
     160.1      162.5      164.4      166.4      167.8      168.8      170.7      174.0      175.9      177.2
     178.8      180.8      182.9      184.8      187.4      189.6      193.3      196.5      200.1      202.6
     204.1      205.4      205.6      205.8      206.2      206.6      206.9      206.5      204.7      202.2
     198.2      192.2      184.8      177.9      169.7      161.3      149.9      137.2      121.6      103.3
      84.9       67.4       59.1
      12.0       20.2       30.0       40.5       53.2       65.9       76.9       86.5       96.3      102.0
     107.1      111.6      114.8      119.1      123.1      126.2      128.1      129.5      130.4      129.9
     129.9      130.8      131.2      131.4      132.4      133.3      134.6      136.9      137.7      139.3
     140.8      142.3      144.3      146.5      148.3      150.5      153.5      155.5      158.1      159.9
     162.7      165.7      168.1      171.3      173.5      174.8      176.2      178.8      181.3      183.2
     186.0      188.0      190.7      192.8      195.4      196.4      197.2      196.7      195.7      194.5
     191.6      187.8      181.1      173.7      164.2      153.9      141.9      127.5      112.6       95.5
      79.8       65.6       59.1
      12.0       13.7       20.4       29.8       40.1       50.5       59.0       63.0       64.6       66.7
      69.0       71.8       74.1       74.5       73.7       71.6       68.9       65.8       62.4       58.1
      53.9       50.1       47.2       45.4       44.0       43.1       42.4       41.7       42.0       41.5
      40.9       40.4       40.0       39.4       39.2       38.8       38.3       39.3       40.5       42.0
      43.9       45.9       48.5       50.9       53.8       57.2       62.2       69.2       77.4       86.7
      97.2      107.4      117.1      127.6      135.8      142.7      148.3      152.7      156.3      158.9
     159.2      158.6      156.4      153.3      148.5      140.8      130.2      117.1      104.4       90.4
      77.5       65.2       59.1
      12.0        9.6       14.0       23.1       35.4       47.8       56.8       64.3       74.2       83.8
      91.0       97.9       98.1       92.0       83.8       75.7       68.2       63.4       60.8       61.6
      62.1       62.6       63.4       65.3       66.8       67.6       69.0       70.2       71.2       71.8
      71.9       72.1       72.9       73.1       73.3       73.4       73.1       74.3       74.3       74.1
      74.4       73.7       74.7       75.0       76.0       76.0       76.7       76.5       76.0       78.7
      83.5       89.8       97.7      107.3      117.0      128.4      139.8      150.8      160.4      167.8
     171.5      172.8      171.1      167.8      162.7      154.6      144.6      130.2      114.7       96.3
      79.6       64.9       59.1
      12.0        8.8       13.8       23.5       38.6       51.5       63.1       75.6       82.0       81.2
      76.1       69.6       66.4       65.2       65.6       67.5       70.2       73.2       75.6       79.6
      83.0       86.4       89.6       93.0       95.7       98.3      100.6      101.6      103.6      105.0
     105.9      107.5      108.7      109.2      110.3      110.5      110.6      110.4      109.9      109.9
     109.0      107.7      106.1      105.2      104.5      103.8      103.7      102.9      101.2      100.1
      99.4       98.5       98.1      100.3      105.0      111.0      119.6      128.5      140.1      153.3
     166.4      177.7      186.8      190.1      189.4      182.4      171.1      153.4      132.4      107.1
      82.9       64.4       59.1
      12.0        8.9       14.5       25.1       39.9       53.0       60.2       62.8       63.2       64.0
      64.6       66.0       68.6       72.0       76.9       81.4       85.7       90.4       95.1      100.0
     104.8      109.2      113.4      117.4      120.3      123.8      126.6      128.6      131.5      133.7
     135.7      137.5      138.7      140.1      140.8      141.0      141.6      139.7      139.2      138.0
     137.2      136.0      134.1      132.4      129.8      127.3      125.3      124.4      122.4      120.8
     118.4      116.7      115.4      114.2      114.9      117.6      122.5      128.5      136.4      146.1
     155.2      165.6      174.6      181.9      185.2      183.1      175.1      159.0      136.9      111.0
      85.1       64.9       59.1
      12.0        6.9       13.5       24.5       38.8       47.1       49.6       53.2       58.0       61.7
      64.1       67.0       70.8       75.8       80.4       85.4       91.0       96.3      101.6      106.6
     111.9      116.8      121.5      125.0      128.9      132.6      135.6      138.5      141.1      143.4
     145.9      147.8      148.9      150.3      151.3      151.6      152.2      149.0      148.8      147.7
     146.6      145.6      143.7      141.3      138.5      135.7      133.2      131.1      129.8      127.5
     125.3      122.5      119.7      118.4      118.7      120.3      124.4      130.5      138.3      146.0
     155.0      162.7      170.0      175.5      177.1      176.4      171.1      157.8      137.2      111.7
      87.0       66.4       59.1
