IESNA:LM-63-2002
[TEST]252p125R
[TESTLAB]METALUX RESEARCH LABS
[ISSUEDATE]06/04/08
[MANUFAC]COOPER LIGHTING - McGRAW-EDISON
[LUMCAT]EPL-168-CF-TG-DLS1
[LUMINAIRE]ENVOY PARKING GARAGE LUMINAIRE WITH FOUR 42WCFL
[MORE]VERTICAL BASE UP POSITION,RECTANGULAR DISTRIBUTION 
[MORE]WITH 1 WAY GLARE SHIELD OPTION
[LAMP]FOUR - CF42TTT/E/IN830 - 3200 LUMENS - 42 WATTS
[BALLAST](2)ICF-2S42-M2-LD
TILT=NONE
4 3200 1 73 41 1  1 -1.041667 -1.041667 0.833333
1.000 1 157
0 2.5 5 7.5 10 12.5 15 17.5 20 22.5 25 27.5 30 32.5 35 37.5 40 42.5 45 47.5 50 
 52.5 55 57.5 60 62.5 65 67.5 70 72.5 75 77.5 80 82.5 85 87.5 90 92.5 95 97.5 
 100 102.5 105 107.5 110 112.5 115 117.5 120 122.5 125 127.5 130 132.5 135 
 137.5 140 142.5 145 147.5 150 152.5 155 157.5 160 162.5 165 167.5 170 172.5 
 175 177.5 180 
0 5 15 25 35 45 55 65 75 85 90 95 105 115 125 135 145 155 165 175 180 185 195 
 205 215 225 235 245 255 265 270 275 285 295 305 315 325 335 345 355 360 
617 622 645 683 722 763 804 845 886 925 963 997 1031 1060 1080 1095 1106 1120 
 1145 1176 1198 1241 1284 1325 1370 1403 1426 1397 1298 1177 1056 900 732 548 
 368 219 146 137 141 138 126 117 137 161 180 187 183 170 155 140 125 109 96 84 
 72 61 49 0 0 0 0 0 0 0 0 0 0 0 0 0 0 0 0 
617 621 643 680 719 760 801 843 883 924 965 1001 1041 1074 1099 1118 1134 1153 
 1180 1212 1239 1284 1331 1373 1414 1449 1460 1414 1315 1189 1071 913 738 550 
 366 218 142 129 132 132 125 124 147 175 195 203 200 186 170 153 136 116 101 
 88 76 62 49 0 0 0 0 0 0 0 0 0 0 0 0 0 0 0 0 
617 620 641 677 717 759 802 845 885 926 965 1006 1047 1085 1119 1149 1180 1213 
 1252 1286 1327 1374 1434 1485 1530 1569 1576 1513 1396 1260 1131 966 781 586 
 392 232 149 128 124 130 138 151 183 217 239 248 243 227 206 184 158 132 110 
 93 79 65 50 0 0 0 0 0 0 0 0 0 0 0 0 0 0 0 0 
617 618 639 674 715 757 799 839 876 912 947 986 1026 1064 1101 1145 1192 1242 
 1298 1345 1401 1463 1512 1553 1578 1586 1580 1521 1402 1270 1133 965 781 592 
 401 239 146 123 121 134 148 169 200 233 254 263 259 242 218 193 162 137 116 
 94 79 63 50 0 0 0 0 0 0 0 0 0 0 0 0 0 0 0 0 
617 617 637 671 711 754 795 832 867 901 935 973 1014 1053 1094 1138 1190 1252 
 1315 1369 1427 1483 1525 1542 1543 1518 1488 1421 1301 1170 1049 886 700 534 
 369 224 139 119 116 123 133 151 181 210 230 241 238 222 203 179 153 133 117 
 99 79 63 52 0 0 0 0 0 0 0 0 0 0 0 0 0 0 0 0 
617 616 636 669 708 749 789 828 864 898 934 974 1016 1057 1097 1138 1183 1237 
 1287 1323 1359 1386 1406 1408 1396 1372 1326 1249 1135 1027 937 826 673 520 
 358 208 130 109 105 109 114 126 152 172 188 199 198 187 173 161 146 130 114 
 94 73 56 47 0 0 0 0 0 0 0 0 0 0 0 0 0 0 0 0 
617 616 636 667 702 740 779 817 851 886 921 960 1000 1038 1074 1105 1146 1195 
 1242 1273 1298 1324 1340 1339 1329 1297 1245 1152 1036 918 817 714 598 457 
 321 191 117 95 90 98 111 136 166 182 198 209 210 202 188 168 141 120 103 82 
 63 51 42 0 0 0 0 0 0 0 0 0 0 0 0 0 0 0 0 
617 615 635 667 700 736 774 814 849 885 918 955 992 1016 1036 1057 1080 1107 
 1133 1138 1137 1143 1143 1133 1116 1079 999 891 765 651 550 475 394 298 207 
 137 95 82 82 90 103 124 153 168 186 198 200 192 178 161 134 114 96 75 62 48 
 38 0 0 0 0 0 0 0 0 0 0 0 0 0 0 0 0 
617 615 634 666 702 739 777 816 854 892 926 954 972 973 964 952 937 925 909 
 889 872 865 872 865 851 815 747 656 559 459 387 340 284 220 162 113 83 73 71 
 77 87 100 119 133 149 162 165 160 150 136 119 95 78 64 52 41 31 0 0 0 0 0 0 0 
 0 0 0 0 0 0 0 0 0 
617 615 634 666 703 739 775 812 849 886 921 939 938 920 889 851 812 769 733 
 701 682 672 685 677 663 623 555 474 402 340 297 268 234 185 138 93 66 57 57 
 64 64 61 69 82 96 108 111 108 102 92 82 69 59 49 40 31 23 0 0 0 0 0 0 0 0 0 0 
 0 0 0 0 0 0 
617 616 634 666 703 738 772 808 843 880 913 929 926 906 872 831 788 740 699 
 672 655 661 677 670 650 604 537 455 393 342 301 267 229 182 133 90 64 54 56 
 62 61 55 59 73 85 95 99 97 91 83 76 66 58 49 40 31 23 0 0 0 0 0 0 0 0 0 0 0 0 
 0 0 0 0 
617 616 634 666 703 738 773 810 847 884 918 937 936 917 885 847 806 764 723 
 692 674 672 687 675 650 603 536 459 396 341 301 269 231 185 133 88 67 57 57 
 63 63 60 71 86 102 111 115 111 103 94 84 70 60 50 41 31 23 0 0 0 0 0 0 0 0 0 
 0 0 0 0 0 0 0 
617 615 634 666 702 737 774 812 848 885 917 940 949 942 923 899 873 850 828 
 805 790 780 795 789 768 733 670 587 498 413 344 303 259 202 148 104 84 72 64 
 71 79 89 116 129 144 153 155 149 139 123 106 83 70 55 45 35 26 0 0 0 0 0 0 0 
 0 0 0 0 0 0 0 0 0 
617 615 634 667 701 736 772 808 841 873 902 932 958 969 974 978 984 994 1009 
 1012 1010 1012 1015 1006 993 950 889 790 669 563 467 403 340 266 191 133 100 
 82 76 82 99 117 143 158 175 186 188 181 167 149 122 104 88 70 55 43 34 0 0 0 
 0 0 0 0 0 0 0 0 0 0 0 0 0 
617 615 635 668 703 739 775 811 843 876 908 945 983 1014 1041 1063 1087 1119 
 1153 1174 1188 1200 1205 1198 1179 1135 1070 972 864 754 659 576 480 373 268 
 170 112 94 87 94 103 120 144 163 181 192 191 183 170 152 130 113 97 80 62 49 
 40 0 0 0 0 0 0 0 0 0 0 0 0 0 0 0 0 
617 616 637 670 707 745 782 819 852 883 914 953 992 1033 1070 1103 1139 1185 
 1230 1259 1286 1304 1317 1309 1287 1259 1211 1135 1039 931 846 748 619 481 
 338 201 124 102 96 98 103 116 140 155 170 184 184 176 163 148 134 119 103 86 
 69 53 45 0 0 0 0 0 0 0 0 0 0 0 0 0 0 0 0 
617 616 638 673 712 751 789 825 859 890 921 957 996 1035 1075 1113 1159 1217 
 1271 1319 1363 1404 1427 1437 1444 1437 1416 1352 1253 1130 1028 889 721 548 
 381 233 144 117 107 109 115 134 170 198 216 227 224 209 190 170 146 128 111 
 93 74 60 49 0 0 0 0 0 0 0 0 0 0 0 0 0 0 0 0 
617 617 640 676 715 756 797 838 874 908 942 979 1020 1058 1096 1138 1184 1238 
 1295 1345 1401 1461 1506 1546 1566 1570 1557 1494 1387 1254 1134 965 767 576 
 389 233 141 117 112 117 127 152 193 225 246 255 249 230 207 181 147 125 108 
 89 75 62 49 0 0 0 0 0 0 0 0 0 0 0 0 0 0 0 0 
617 619 643 678 716 758 800 840 880 918 957 997 1037 1075 1107 1137 1169 1202 
 1239 1274 1316 1362 1416 1457 1493 1519 1526 1481 1383 1256 1136 976 787 588 
 392 227 139 117 115 116 117 128 158 187 209 220 219 205 186 165 142 121 102 
 85 73 60 48 0 0 0 0 0 0 0 0 0 0 0 0 0 0 0 0 
617 620 646 681 718 757 798 838 875 914 953 989 1026 1059 1085 1101 1114 1127 
 1148 1177 1208 1251 1305 1348 1391 1422 1443 1412 1336 1206 1082 920 739 552 
 364 213 138 123 118 114 106 106 130 157 178 188 187 175 159 142 126 108 94 81 
 69 57 46 0 0 0 0 0 0 0 0 0 0 0 0 0 0 0 0 
617 620 647 682 720 759 800 839 876 913 950 982 1016 1046 1066 1079 1088 1097 
 1115 1147 1180 1226 1279 1320 1366 1405 1425 1399 1317 1189 1066 906 735 550 
 363 215 139 124 121 116 104 101 122 144 161 171 171 159 145 131 117 102 89 77 
 66 55 45 0 0 0 0 0 0 0 0 0 0 0 0 0 0 0 0 
617 621 648 684 723 764 806 847 887 928 969 1005 1044 1077 1104 1124 1141 1159 
 1185 1225 1265 1322 1380 1423 1471 1505 1514 1468 1368 1233 1101 932 750 558 
 369 221 147 129 126 121 111 112 137 162 182 190 189 174 158 141 125 107 92 79 
 67 55 44 0 0 0 0 0 0 0 0 0 0 0 0 0 0 0 0 
617 622 649 688 730 773 816 858 898 938 976 1016 1056 1094 1129 1164 1198 1237 
 1282 1335 1391 1455 1535 1598 1658 1697 1698 1627 1497 1347 1197 1006 809 606 
 404 249 171 145 135 135 137 148 182 212 231 237 231 214 193 170 142 118 99 83 
 71 58 46 0 0 0 0 0 0 0 0 0 0 0 0 0 0 0 0 
617 622 652 691 734 776 819 859 896 934 969 1008 1047 1089 1132 1181 1234 1296 
 1367 1427 1494 1565 1629 1688 1738 1770 1765 1685 1546 1393 1230 1030 830 625 
 424 273 189 165 155 157 162 181 216 247 263 267 259 238 213 183 146 123 105 
 85 71 57 45 0 0 0 0 0 0 0 0 0 0 0 0 0 0 0 0 
617 623 653 694 735 778 818 857 894 932 968 1009 1050 1092 1141 1197 1260 1336 
 1411 1477 1545 1609 1665 1706 1746 1774 1756 1674 1535 1384 1229 1032 846 641 
 447 295 220 198 185 178 173 181 207 234 251 255 248 229 205 176 142 123 106 
 87 70 56 47 0 0 0 0 0 0 0 0 0 0 0 0 0 0 0 0 
617 623 655 695 735 778 819 859 896 934 974 1018 1064 1113 1167 1231 1307 1399 
 1484 1554 1621 1672 1717 1745 1767 1767 1732 1648 1514 1376 1246 1069 882 683 
 487 339 269 241 221 208 188 181 196 212 222 226 217 201 182 164 147 128 110 
 90 70 55 47 0 0 0 0 0 0 0 0 0 0 0 0 0 0 0 0 
617 624 656 696 734 775 815 854 891 929 968 1012 1058 1111 1174 1244 1328 1418 
 1503 1567 1631 1694 1736 1782 1814 1814 1777 1701 1581 1450 1314 1154 975 758 
 556 394 323 290 263 239 216 217 229 237 245 250 244 226 204 178 147 124 105 
 86 67 54 43 0 0 0 0 0 0 0 0 0 0 0 0 0 0 0 0 
617 625 658 698 737 777 820 862 903 942 981 1026 1070 1118 1168 1223 1284 1349 
 1413 1462 1517 1581 1636 1703 1748 1761 1723 1630 1497 1349 1207 1046 890 707 
 539 422 361 331 298 263 232 222 235 244 250 254 247 229 208 179 146 126 105 
 84 68 53 41 0 0 0 0 0 0 0 0 0 0 0 0 0 0 0 0 
617 626 659 700 740 780 822 866 907 949 989 1032 1075 1116 1148 1182 1211 1243 
 1276 1303 1338 1384 1446 1497 1532 1547 1524 1452 1325 1194 1064 920 773 625 
 509 435 397 373 335 285 237 207 209 215 217 224 227 215 195 168 139 113 93 77 
 63 50 39 0 0 0 0 0 0 0 0 0 0 0 0 0 0 0 0 
617 626 659 701 741 781 821 864 905 945 982 1018 1056 1084 1103 1117 1128 1139 
 1153 1169 1187 1222 1260 1305 1340 1356 1345 1299 1201 1090 973 842 707 574 
 478 424 410 393 351 293 226 167 152 154 156 164 178 173 155 136 115 96 82 69 
 57 46 37 0 0 0 0 0 0 0 0 0 0 0 0 0 0 0 0 
617 626 658 700 741 780 819 862 901 939 974 1007 1042 1067 1083 1092 1094 1097 
 1105 1116 1132 1167 1198 1239 1277 1297 1290 1263 1169 1069 955 823 693 564 
 472 420 411 396 357 297 227 162 141 141 142 149 165 163 145 127 110 94 81 69 
 57 47 38 0 0 0 0 0 0 0 0 0 0 0 0 0 0 0 0 
617 626 658 701 743 782 823 866 907 946 982 1019 1055 1083 1103 1117 1126 1135 
 1146 1161 1185 1218 1251 1284 1317 1339 1325 1286 1197 1089 982 852 716 581 
 481 424 408 393 354 297 228 168 153 153 156 163 178 173 155 136 117 97 83 71 
 58 47 37 0 0 0 0 0 0 0 0 0 0 0 0 0 0 0 0 
617 625 657 698 739 780 822 866 908 948 988 1030 1072 1111 1142 1171 1199 1228 
 1252 1277 1312 1359 1418 1471 1506 1516 1479 1407 1291 1173 1050 901 749 599 
 493 428 398 375 336 290 240 204 207 213 216 222 228 214 192 167 139 109 89 74 
 62 50 40 0 0 0 0 0 0 0 0 0 0 0 0 0 0 0 0 
617 625 655 694 733 774 817 859 899 938 978 1021 1065 1110 1155 1205 1253 1304 
 1345 1378 1418 1468 1522 1581 1625 1629 1601 1511 1380 1248 1113 950 793 639 
 504 416 368 340 305 269 238 223 237 251 257 262 259 245 223 193 154 130 106 
 86 72 57 45 0 0 0 0 0 0 0 0 0 0 0 0 0 0 0 0 
617 624 653 691 729 771 811 851 888 927 964 1007 1051 1096 1150 1209 1270 1337 
 1403 1455 1508 1562 1613 1656 1687 1696 1655 1566 1447 1317 1188 1027 849 660 
 494 374 324 301 270 244 215 209 229 245 256 261 257 240 217 189 160 138 117 
 96 76 60 49 0 0 0 0 0 0 0 0 0 0 0 0 0 0 0 0 
617 623 652 690 731 775 817 858 898 936 975 1018 1061 1110 1166 1238 1317 1405 
 1479 1541 1603 1654 1701 1733 1742 1744 1708 1630 1512 1389 1268 1107 917 714 
 507 341 280 257 237 218 196 190 207 220 228 234 228 212 195 176 158 138 119 
 97 75 60 52 0 0 0 0 0 0 0 0 0 0 0 0 0 0 0 0 
617 623 651 690 732 776 817 858 897 934 970 1010 1051 1095 1144 1200 1271 1354 
 1434 1500 1564 1624 1662 1694 1728 1743 1719 1639 1510 1364 1227 1055 874 675 
 470 310 240 223 203 194 192 200 227 249 262 267 257 239 216 190 160 140 122 
 99 77 62 53 0 0 0 0 0 0 0 0 0 0 0 0 0 0 0 0 
617 623 650 690 733 775 818 860 899 937 973 1012 1054 1094 1137 1185 1236 1293 
 1354 1406 1464 1524 1562 1612 1653 1688 1680 1595 1462 1314 1167 991 812 619 
 427 275 199 181 176 178 184 200 231 259 275 281 272 250 227 198 161 137 117 
 93 79 64 53 0 0 0 0 0 0 0 0 0 0 0 0 0 0 0 0 
617 622 648 687 729 771 815 860 902 943 983 1022 1062 1100 1134 1170 1205 1243 
 1287 1326 1366 1405 1454 1498 1544 1592 1603 1547 1427 1287 1159 996 811 610 
 409 248 167 153 153 155 156 164 193 220 240 248 241 225 203 180 152 129 109 
 92 79 65 52 0 0 0 0 0 0 0 0 0 0 0 0 0 0 0 0 
617 621 645 683 723 765 807 850 892 935 974 1010 1048 1081 1106 1126 1142 1162 
 1189 1216 1236 1272 1311 1355 1401 1438 1460 1424 1326 1198 1076 920 747 559 
 373 221 150 142 144 141 132 126 147 172 191 198 195 181 164 148 130 113 99 86 
 74 61 50 0 0 0 0 0 0 0 0 0 0 0 0 0 0 0 0 
617 622 645 683 722 763 804 845 886 925 963 997 1031 1060 1080 1095 1106 1120 
 1145 1176 1198 1241 1284 1325 1370 1403 1426 1397 1298 1177 1056 900 732 548 
 368 219 146 137 141 138 126 117 137 161 180 187 183 170 155 140 125 109 96 84 
 72 61 49 0 0 0 0 0 0 0 0 0 0 0 0 0 0 0 0 
