IESNA:LM-63-2002
[TEST]252p121R
[TESTLAB]METALUX RESEARCH LABS
[ISSUEDATE]06/04/08
[MANUFAC]COOPER LIGHTING - McGRAW-EDISON
[LUMCAT]EPL-168-CF-SQ-DLS2
[LUMINAIRE]ENVOY PARKING GARAGE LUMINAIRE WITH FOUR 42WCFL
[MORE]VERTICAL BASE UP POSITION,SQUARE DISTRIBUTION 
[MORE]WITH 2 WAY GLARE SHIELD OPTION
[LAMP]FOUR - CF42TTT/E/IN830 - 3200 LUMENS - 42 WATTS
[BALLAST](2)ICF-2S42-M2-LD
TILT=NONE
4 3200 1 73 43 1  1 -1.041667 -1.041667 0.833333
1.000 1 147
0 2.5 5 7.5 10 12.5 15 17.5 20 22.5 25 27.5 30 32.5 35 37.5 40 42.5 45 47.5 50 
 52.5 55 57.5 60 62.5 65 67.5 70 72.5 75 77.5 80 82.5 85 87.5 90 92.5 95 97.5 
 100 102.5 105 107.5 110 112.5 115 117.5 120 122.5 125 127.5 130 132.5 135 
 137.5 140 142.5 145 147.5 150 152.5 155 157.5 160 162.5 165 167.5 170 172.5 
 175 177.5 180 
0 5 15 25 35 45 55 65 75 85 90 95 105 115 125 135 145 147.5 155 165 175 180 
 185 195 205 212.5 215 225 235 245 255 265 270 275 285 295 305 315 325 335 345 
 355 360 
611 614 638 673 709 747 786 824 860 895 928 962 996 1023 1043 1055 1062 1064 
 1072 1079 1093 1138 1193 1237 1268 1285 1274 1234 1123 1021 920 819 681 502 
 335 202 137 129 130 126 111 99 106 126 146 160 165 158 145 131 118 102 89 77 
 66 55 44 0 0 0 0 0 0 0 0 0 0 0 0 0 0 0 0 
611 614 638 673 711 750 790 830 869 907 944 981 1020 1052 1079 1097 1110 1120 
 1133 1147 1168 1218 1267 1309 1333 1337 1310 1251 1148 1039 944 843 701 523 
 347 214 142 129 130 126 119 111 122 146 167 181 186 178 164 147 128 110 93 80 
 68 56 44 0 0 0 0 0 0 0 0 0 0 0 0 0 0 0 0 
611 615 639 675 715 756 796 836 873 908 944 983 1024 1061 1095 1128 1159 1190 
 1218 1240 1268 1313 1378 1434 1476 1491 1463 1378 1256 1123 997 858 696 531 
 375 245 168 147 141 142 144 151 172 199 219 231 231 219 200 177 149 125 103 
 85 72 59 45 0 0 0 0 0 0 0 0 0 0 0 0 0 0 0 0 
611 616 641 677 716 756 796 833 866 898 930 969 1008 1048 1089 1135 1183 1230 
 1275 1308 1342 1386 1426 1465 1495 1500 1490 1416 1287 1165 1036 886 717 559 
 400 263 190 169 161 163 169 183 204 227 242 250 246 232 210 185 150 128 109 
 87 73 58 46 0 0 0 0 0 0 0 0 0 0 0 0 0 0 0 0 
611 616 642 678 717 757 795 830 865 898 931 970 1010 1052 1099 1154 1221 1298 
 1369 1427 1486 1539 1576 1586 1567 1522 1459 1367 1244 1135 1028 882 712 557 
 409 288 221 200 187 181 179 185 203 222 234 239 234 220 200 175 145 127 111 
 93 73 58 48 0 0 0 0 0 0 0 0 0 0 0 0 0 0 0 0 
611 616 642 678 715 754 794 830 864 897 932 974 1019 1063 1108 1161 1225 1296 
 1360 1403 1444 1478 1498 1497 1470 1426 1369 1291 1188 1091 1005 881 733 588 
 436 311 254 234 220 205 189 182 189 197 206 209 203 190 175 159 142 124 107 
 87 67 52 44 0 0 0 0 0 0 0 0 0 0 0 0 0 0 0 0 
611 617 642 678 712 749 787 821 854 886 921 960 1000 1037 1074 1112 1167 1229 
 1286 1323 1352 1384 1407 1417 1402 1365 1311 1218 1106 999 907 802 689 561 
 440 334 287 267 246 230 213 210 212 212 216 218 216 203 188 166 135 115 97 77 
 59 48 39 0 0 0 0 0 0 0 0 0 0 0 0 0 0 0 0 
611 618 643 679 713 750 788 827 863 899 934 974 1006 1029 1052 1076 1103 1133 
 1166 1183 1198 1211 1213 1214 1202 1169 1101 992 873 750 655 581 498 413 336 
 294 276 262 246 225 204 192 195 197 203 206 205 193 180 158 127 110 91 71 58 
 45 35 0 0 0 0 0 0 0 0 0 0 0 0 0 0 0 0 
611 618 644 680 716 751 788 826 864 902 936 962 974 973 963 953 940 929 922 
 919 923 933 955 961 957 933 882 809 714 613 536 470 396 318 258 217 198 189 
 180 166 149 139 145 149 158 165 171 164 151 133 112 90 73 59 48 38 28 0 0 0 0 
 0 0 0 0 0 0 0 0 0 0 0 0 
611 618 643 679 716 749 784 821 859 895 928 942 938 921 893 858 822 784 755 
 741 738 755 784 787 779 742 680 613 555 494 442 392 331 257 189 136 109 99 98 
 98 88 75 80 91 101 107 119 120 107 93 80 66 56 47 38 30 22 0 0 0 0 0 0 0 0 0 
 0 0 0 0 0 0 0 
611 618 644 680 717 750 785 821 857 893 925 938 931 912 883 847 808 767 738 
 725 728 751 783 786 770 731 669 599 542 483 425 367 305 232 159 103 72 62 65 
 73 71 62 69 83 92 99 110 113 101 88 78 65 56 48 39 30 23 0 0 0 0 0 0 0 0 0 0 
 0 0 0 0 0 0 
611 618 643 681 717 752 788 825 863 900 931 948 944 929 902 869 835 799 769 
 751 752 766 800 803 790 745 678 608 557 504 443 389 328 253 176 118 91 78 82 
 87 82 77 89 101 113 120 129 128 114 101 88 69 58 49 39 31 23 0 0 0 0 0 0 0 0 
 0 0 0 0 0 0 0 0 
611 617 643 678 714 750 788 826 862 899 929 951 960 954 941 926 909 893 885 
 875 873 880 898 903 895 875 824 754 674 594 529 470 401 326 249 201 187 171 
 157 151 144 142 155 159 167 170 175 166 151 132 110 84 67 54 45 35 27 0 0 0 0 
 0 0 0 0 0 0 0 0 0 0 0 0 
611 617 642 676 710 746 783 819 853 885 914 944 967 979 989 999 1013 1031 1054 
 1067 1077 1088 1096 1087 1083 1048 998 915 819 708 621 555 479 398 319 273 
 261 248 229 208 194 188 193 192 194 196 194 185 171 152 121 103 85 68 55 43 
 34 0 0 0 0 0 0 0 0 0 0 0 0 0 0 0 0 
611 616 641 675 710 747 784 821 854 887 919 958 998 1032 1064 1094 1132 1177 
 1220 1253 1280 1301 1313 1304 1280 1239 1177 1093 996 891 805 720 620 517 417 
 336 303 290 262 240 214 201 203 203 205 206 196 192 176 157 132 114 97 79 61 
 48 40 0 0 0 0 0 0 0 0 0 0 0 0 0 0 0 0 
611 616 640 676 714 753 792 829 863 894 925 965 1005 1047 1085 1123 1171 1235 
 1294 1334 1372 1406 1422 1420 1394 1354 1301 1235 1149 1050 972 873 739 604 
 461 331 268 247 229 210 193 187 193 198 202 207 203 189 173 156 140 122 104 
 85 66 52 45 0 0 0 0 0 0 0 0 0 0 0 0 0 0 0 0 
611 616 640 677 716 755 794 830 863 895 925 961 1000 1039 1081 1122 1177 1245 
 1316 1377 1430 1483 1516 1530 1536 1512 1473 1401 1305 1193 1093 963 797 629 
 466 325 241 216 197 189 189 195 218 234 243 247 240 223 202 178 147 127 111 
 91 72 58 49 0 0 0 0 0 0 0 0 0 0 0 0 0 0 0 0 
611 617 641 678 718 757 795 832 865 898 929 963 1001 1038 1080 1124 1176 1245 
 1313 1371 1422 1476 1520 1541 1550 1525 1478 1400 1300 1181 1078 952 789 613 
 452 316 232 206 190 183 183 191 217 236 249 254 247 232 211 185 148 126 109 
 88 72 59 49 0 0 0 0 0 0 0 0 0 0 0 0 0 0 0 0 
611 616 640 678 718 756 797 835 871 905 938 974 1015 1053 1094 1138 1184 1235 
 1286 1325 1365 1408 1445 1474 1481 1485 1469 1418 1316 1189 1071 925 767 597 
 423 282 200 175 168 170 176 188 213 234 251 258 254 237 217 191 152 126 108 
 87 74 61 49 0 0 0 0 0 0 0 0 0 0 0 0 0 0 0 0 
611 616 640 677 715 754 795 835 873 911 948 984 1023 1060 1090 1118 1147 1174 
 1198 1216 1237 1260 1300 1333 1363 1375 1366 1324 1233 1103 975 831 680 531 
 387 257 173 151 149 148 144 141 153 177 196 207 209 201 186 167 142 119 99 85 
 72 59 47 0 0 0 0 0 0 0 0 0 0 0 0 0 0 0 0 
611 615 638 675 711 750 789 828 865 903 939 972 1004 1034 1054 1068 1079 1086 
 1095 1107 1114 1134 1167 1198 1236 1263 1276 1249 1152 1035 931 819 669 518 
 375 230 148 134 132 129 117 104 109 132 156 169 172 168 156 141 122 105 91 78 
 67 55 36 0 0 0 0 0 0 0 0 0 0 0 0 0 0 0 0 
611 614 638 674 711 749 787 825 861 896 931 962 994 1022 1040 1053 1061 1065 
 1075 1089 1096 1119 1158 1194 1231 1263 1277 1250 1160 1038 929 818 697 550 
 401 235 143 128 128 125 112 98 104 126 151 163 167 163 151 138 121 103 89 77 
 66 55 44 0 0 0 0 0 0 0 0 0 0 0 0 0 0 0 0 
611 614 637 673 711 749 789 829 867 905 942 978 1013 1046 1072 1090 1106 1120 
 1134 1150 1164 1189 1226 1259 1303 1327 1333 1287 1186 1067 953 832 699 557 
 393 237 151 130 130 130 122 113 120 147 171 183 187 181 169 153 133 111 94 81 
 69 57 45 0 0 0 0 0 0 0 0 0 0 0 0 0 0 0 0 
611 614 637 673 712 752 793 833 871 908 944 981 1019 1054 1089 1122 1154 1187 
 1216 1238 1268 1303 1352 1396 1439 1468 1463 1416 1311 1178 1039 888 735 564 
 398 258 181 155 145 150 154 157 174 199 219 228 229 219 202 180 152 123 101 
 85 73 59 46 0 0 0 0 0 0 0 0 0 0 0 0 0 0 0 0 
611 614 638 674 713 754 794 831 866 899 931 967 1004 1042 1082 1126 1173 1221 
 1273 1318 1369 1420 1461 1495 1520 1528 1526 1450 1329 1206 1077 928 783 610 
 434 289 201 174 167 174 181 191 209 233 252 257 249 234 213 189 154 127 109 
 88 72 58 46 0 0 0 0 0 0 0 0 0 0 0 0 0 0 0 0 
611 614 638 673 712 752 790 828 863 895 928 965 1005 1042 1085 1133 1191 1259 
 1329 1392 1455 1513 1564 1586 1584 1567 1522 1423 1303 1182 1072 928 775 606 
 440 306 223 199 184 179 176 178 200 224 240 245 238 222 204 179 148 127 110 
 91 72 58 48 0 0 0 0 0 0 0 0 0 0 0 0 0 0 0 0 
611 614 637 673 712 752 790 828 863 896 930 967 1006 1045 1086 1134 1193 1264 
 1334 1395 1458 1516 1563 1589 1585 1564 1516 1416 1303 1186 1077 929 778 609 
 447 310 230 207 187 182 181 182 202 222 235 242 233 217 198 174 146 127 111 
 93 73 58 48 0 0 0 0 0 0 0 0 0 0 0 0 0 0 0 0 
611 613 637 672 709 748 786 824 859 892 927 969 1011 1055 1101 1145 1195 1256 
 1314 1364 1414 1445 1470 1473 1446 1416 1368 1306 1221 1120 1033 903 743 580 
 433 314 256 236 218 202 186 179 189 200 207 212 213 194 179 161 142 125 107 
 86 66 52 43 0 0 0 0 0 0 0 0 0 0 0 0 0 0 0 0 
611 613 637 671 704 740 778 814 847 878 911 950 989 1024 1062 1101 1153 1208 
 1263 1299 1334 1368 1379 1373 1361 1333 1284 1204 1105 996 905 799 685 554 
 425 326 284 265 245 228 211 204 209 211 215 218 217 206 192 172 141 116 96 76 
 59 49 38 0 0 0 0 0 0 0 0 0 0 0 0 0 0 0 0 
611 614 637 670 705 741 779 817 854 889 924 962 992 1015 1031 1050 1068 1091 
 1113 1118 1129 1143 1154 1169 1165 1130 1063 972 868 754 650 563 478 397 330 
 286 269 255 239 217 199 188 192 196 201 206 207 199 185 164 137 111 90 71 58 
 45 34 0 0 0 0 0 0 0 0 0 0 0 0 0 0 0 0 
611 614 637 672 708 744 781 820 859 898 933 957 968 967 955 941 924 913 903 
 895 898 914 949 966 960 922 861 788 707 619 543 467 384 297 242 205 186 177 
 168 155 145 137 142 152 159 167 175 170 156 139 118 92 74 61 50 39 29 0 0 0 0 
 0 0 0 0 0 0 0 0 0 0 0 0 
611 614 637 671 708 743 779 817 856 893 924 938 936 921 894 861 825 790 768 
 760 770 804 841 842 820 767 690 629 579 504 442 388 325 248 178 128 103 94 92 
 91 82 72 79 92 103 112 126 129 116 102 90 73 62 52 44 35 27 0 0 0 0 0 0 0 0 0 
 0 0 0 0 0 0 0 
611 614 636 671 708 742 776 814 852 888 919 932 929 913 885 851 816 779 757 
 752 768 808 844 837 808 758 679 613 560 484 422 369 309 232 155 99 69 62 65 
 71 68 60 68 83 94 103 117 122 109 96 85 70 60 51 43 35 27 0 0 0 0 0 0 0 0 0 0 
 0 0 0 0 0 0 
611 614 636 672 708 743 778 817 856 894 924 942 940 926 902 872 841 812 788 
 775 781 812 840 831 809 762 693 623 569 495 435 385 326 251 172 118 92 83 84 
 85 81 76 89 105 117 125 139 138 123 109 96 75 63 53 44 35 27 0 0 0 0 0 0 0 0 
 0 0 0 0 0 0 0 0 
611 613 635 670 707 742 780 819 857 894 925 947 958 957 949 936 923 915 914 
 911 915 930 961 973 962 925 864 791 700 608 531 464 387 305 239 200 188 176 
 161 153 145 144 156 166 174 179 188 180 164 144 122 94 79 61 50 41 31 0 0 0 0 
 0 0 0 0 0 0 0 0 0 0 0 0 
611 613 635 670 704 740 778 814 847 879 908 939 967 984 1001 1020 1037 1062 
 1092 1107 1119 1135 1138 1145 1144 1113 1050 957 836 719 629 551 461 374 308 
 277 264 254 236 216 199 191 191 195 200 206 206 199 185 165 133 115 97 76 61 
 49 40 0 0 0 0 0 0 0 0 0 0 0 0 0 0 0 0 
611 612 635 670 705 742 780 817 851 885 918 958 999 1036 1077 1118 1169 1232 
 1298 1345 1383 1414 1424 1421 1395 1355 1295 1210 1106 997 901 793 680 552 
 429 333 309 297 270 246 217 202 201 205 215 220 222 213 199 176 148 128 108 
 90 69 55 44 0 0 0 0 0 0 0 0 0 0 0 0 0 0 0 0 
611 613 636 671 709 747 785 822 857 887 920 961 1004 1048 1093 1148 1216 1290 
 1354 1402 1448 1476 1492 1478 1454 1416 1364 1299 1200 1096 1006 878 728 579 
 429 320 273 257 239 219 198 187 192 200 208 213 209 196 182 165 148 131 112 
 92 74 56 47 0 0 0 0 0 0 0 0 0 0 0 0 0 0 0 0 
611 613 637 673 712 751 789 825 859 890 921 959 999 1039 1085 1134 1192 1262 
 1329 1380 1427 1476 1501 1516 1513 1492 1454 1375 1263 1147 1039 888 721 556 
 412 303 241 222 205 197 193 194 216 235 247 251 244 229 209 183 151 132 116 
 97 76 61 51 0 0 0 0 0 0 0 0 0 0 0 0 0 0 0 0 
611 614 637 673 712 753 794 834 871 904 938 977 1016 1059 1100 1145 1191 1236 
 1284 1315 1353 1394 1428 1471 1507 1531 1517 1434 1306 1178 1051 896 727 565 
 402 273 202 185 175 175 178 187 213 236 250 258 254 237 217 192 157 133 113 
 91 77 63 50 0 0 0 0 0 0 0 0 0 0 0 0 0 0 0 0 
611 614 638 673 711 750 791 832 871 908 945 985 1024 1059 1091 1119 1145 1168 
 1188 1192 1210 1239 1289 1340 1378 1389 1379 1321 1209 1079 959 824 662 502 
 358 236 167 156 154 150 146 144 160 181 198 211 213 205 188 169 145 123 102 
 87 74 61 48 0 0 0 0 0 0 0 0 0 0 0 0 0 0 0 0 
611 614 638 673 709 746 785 823 859 896 930 965 1000 1027 1049 1060 1069 1075 
 1085 1090 1102 1140 1183 1219 1247 1260 1255 1213 1111 1015 910 796 645 479 
 333 202 142 135 135 130 116 104 112 131 150 163 169 163 151 136 121 105 91 79 
 68 56 45 0 0 0 0 0 0 0 0 0 0 0 0 0 0 0 0 
611 614 638 673 709 747 786 824 860 895 928 962 996 1023 1043 1055 1062 1064 
 1072 1079 1093 1138 1193 1237 1268 1285 1274 1234 1123 1021 920 819 681 502 
 335 202 137 129 130 126 111 99 106 126 146 160 165 158 145 131 118 102 89 77 
 66 55 44 0 0 0 0 0 0 0 0 0 0 0 0 0 0 0 0 
