IESNA:LM-63-2002
[TEST]252p116R
[TESTLAB]METALUX RESEARCH LABS
[ISSUEDATE]06/04/08
[MANUFAC]COOPER LIGHTING - McGRAW-EDISON
[LUMCAT]EPL-168-CF-RD-DLS2
[LUMINAIRE]ENVOY PARKING GARAGE LUMINAIRE WITH FOUR 42WCFL
[MORE]VERTICAL BASE UP POSITION,ROUND DISTRIBUTION 
[MORE]WITH 2 WAY GLARE SHIELD OPTION
[LAMP]FOUR - CF42TTT/E/IN830 - 3200 LUMENS - 42 WATTS
[BALLAST](2) ICF-2S42-M2-LD
TILT=NONE
4 3200 1 73 43 1  1 -1.041667 -1.041667 0.833333
1.000 1 157
0 2.5 5 7.5 10 12.5 15 17.5 20 22.5 25 27.5 30 32.5 35 37.5 40 42.5 45 47.5 50 
 52.5 55 57.5 60 62.5 65 67.5 70 72.5 75 77.5 80 82.5 85 87.5 90 92.5 95 97.5 
 100 102.5 105 107.5 110 112.5 115 117.5 120 122.5 125 127.5 130 132.5 135 
 137.5 140 142.5 145 147.5 150 152.5 155 157.5 160 162.5 165 167.5 170 172.5 
 175 177.5 180 
0 5 15 25 35 45 55 65 75 85 90 95 105 115 125 135 145 152.5 155 165 175 180 
 185 195 205 207.5 215 225 235 245 255 265 270 275 285 295 305 315 325 335 345 
 355 360 
629 631 652 688 728 769 810 852 891 932 972 1009 1047 1079 1104 1122 1138 1152 
 1173 1199 1215 1248 1287 1322 1362 1400 1418 1387 1297 1174 1060 911 738 562 
 383 235 151 136 140 140 132 128 147 175 194 202 199 185 169 152 134 114 99 86 
 74 61 48 0 0 0 0 0 0 0 0 0 0 0 0 0 0 0 0 
629 631 652 688 727 769 813 856 897 940 982 1021 1061 1098 1128 1152 1175 1195 
 1223 1248 1272 1307 1350 1390 1434 1466 1475 1432 1339 1216 1098 943 765 584 
 405 249 162 142 142 143 140 144 166 193 213 223 220 205 187 167 145 123 103 
 89 76 62 49 0 0 0 0 0 0 0 0 0 0 0 0 0 0 0 0 
629 630 651 687 728 771 815 858 897 937 975 1013 1055 1094 1130 1167 1207 1248 
 1296 1335 1377 1429 1479 1528 1566 1592 1587 1528 1410 1278 1151 998 818 631 
 443 287 193 164 155 159 167 183 210 240 258 267 262 244 220 194 166 136 115 
 94 79 64 50 0 0 0 0 0 0 0 0 0 0 0 0 0 0 0 0 
629 630 651 687 730 772 815 854 890 924 957 993 1031 1068 1107 1150 1197 1250 
 1310 1360 1416 1478 1523 1557 1580 1575 1545 1465 1343 1209 1088 948 791 623 
 454 305 214 185 177 179 183 193 215 239 256 264 257 238 218 193 161 135 117 
 97 79 63 51 0 0 0 0 0 0 0 0 0 0 0 0 0 0 0 0 
629 630 651 687 728 771 813 853 890 925 959 999 1040 1081 1121 1162 1211 1268 
 1325 1368 1410 1455 1489 1504 1506 1486 1436 1352 1235 1106 1004 880 751 602 
 449 318 241 218 203 193 184 182 198 216 229 236 232 216 197 176 153 136 120 
 101 81 63 53 0 0 0 0 0 0 0 0 0 0 0 0 0 0 0 0 
629 629 651 686 724 765 807 847 885 921 960 1000 1043 1085 1122 1151 1183 1224 
 1265 1294 1322 1346 1362 1364 1359 1344 1297 1216 1104 983 885 787 668 541 
 419 320 266 244 232 216 200 190 198 205 211 217 213 200 183 164 142 126 110 
 91 70 56 47 0 0 0 0 0 0 0 0 0 0 0 0 0 0 0 0 
629 629 651 686 721 759 799 838 872 907 941 977 1015 1045 1073 1094 1120 1157 
 1198 1225 1245 1266 1283 1283 1274 1247 1195 1101 974 853 753 665 573 479 394 
 334 306 288 270 251 232 215 216 219 223 225 221 208 191 171 143 120 101 80 64 
 52 43 0 0 0 0 0 0 0 0 0 0 0 0 0 0 0 0 
629 629 651 687 723 762 803 845 885 925 963 1000 1032 1049 1060 1070 1081 1101 
 1120 1129 1133 1149 1168 1173 1162 1138 1083 990 870 742 639 558 474 393 323 
 275 255 246 236 218 200 189 193 198 207 211 211 201 186 165 141 113 94 75 61 
 48 37 0 0 0 0 0 0 0 0 0 0 0 0 0 0 0 0 
629 629 651 687 726 765 804 845 887 928 967 993 1003 996 976 951 928 907 893 
 886 891 904 937 945 947 934 901 825 709 590 491 423 354 286 228 185 165 162 
 158 150 139 127 130 136 146 154 166 159 146 128 110 86 71 59 49 38 29 0 0 0 0 
 0 0 0 0 0 0 0 0 0 0 0 0 
629 630 651 687 726 763 799 838 878 917 955 976 977 961 931 894 855 815 785 
 774 779 803 832 836 837 825 795 722 612 503 406 345 278 212 150 107 84 81 83 
 86 82 72 72 84 95 106 128 124 111 98 87 73 63 53 44 35 26 0 0 0 0 0 0 0 0 0 0 
 0 0 0 0 0 0 
629 630 651 687 727 763 801 841 881 921 959 982 985 970 942 907 870 835 806 
 793 795 813 841 843 838 825 793 720 611 495 398 335 265 196 133 88 67 62 67 
 75 76 71 79 93 106 116 135 130 117 103 92 74 64 53 44 34 26 0 0 0 0 0 0 0 0 0 
 0 0 0 0 0 0 0 
629 630 652 688 727 764 802 843 883 923 961 985 992 980 956 928 898 871 847 
 834 834 846 869 868 860 844 803 725 617 513 414 351 287 223 164 123 104 95 97 
 98 93 91 108 121 132 142 156 149 135 118 103 81 68 56 45 35 27 0 0 0 0 0 0 0 
 0 0 0 0 0 0 0 0 0 
629 629 652 687 724 762 801 841 880 918 953 985 1005 1010 1004 997 992 993 
 1002 1008 1014 1029 1051 1053 1048 1033 983 888 766 642 539 466 390 319 256 
 216 202 188 175 165 158 160 178 187 195 200 201 189 172 150 126 101 86 66 54 
 42 33 0 0 0 0 0 0 0 0 0 0 0 0 0 0 0 0 
629 630 653 688 725 762 799 836 867 900 929 963 996 1015 1031 1046 1064 1091 
 1124 1146 1162 1181 1193 1196 1192 1165 1107 1004 880 758 655 573 491 415 345 
 295 273 256 237 217 198 185 193 197 203 206 201 189 174 155 131 113 97 79 62 
 50 39 0 0 0 0 0 0 0 0 0 0 0 0 0 0 0 0 
629 630 654 690 728 766 805 843 878 911 945 985 1026 1064 1098 1125 1156 1197 
 1238 1267 1291 1315 1331 1342 1341 1322 1266 1167 1045 915 806 706 602 499 
 401 320 282 262 239 221 199 192 193 198 205 208 207 196 180 160 140 123 107 
 88 70 55 45 0 0 0 0 0 0 0 0 0 0 0 0 0 0 0 0 
629 631 655 692 732 771 809 846 881 913 945 986 1026 1069 1108 1142 1179 1226 
 1266 1295 1322 1339 1351 1356 1360 1351 1315 1235 1131 1007 908 800 674 541 
 410 299 243 222 206 194 181 177 191 204 216 223 216 202 184 163 144 127 111 
 94 76 59 50 0 0 0 0 0 0 0 0 0 0 0 0 0 0 0 0 
629 631 657 693 734 775 815 853 887 920 950 986 1024 1060 1101 1142 1192 1251 
 1310 1361 1414 1465 1505 1528 1542 1532 1492 1405 1276 1141 1032 896 742 582 
 421 289 218 192 177 172 172 183 211 234 249 255 249 231 210 185 151 131 114 
 96 78 65 53 0 0 0 0 0 0 0 0 0 0 0 0 0 0 0 0 
629 632 657 695 735 778 820 861 898 934 968 1007 1047 1085 1124 1166 1213 1266 
 1322 1369 1424 1480 1528 1574 1601 1610 1583 1499 1374 1230 1107 949 774 593 
 414 269 188 167 159 160 165 184 219 244 261 266 259 239 217 191 156 133 114 
 93 79 65 52 0 0 0 0 0 0 0 0 0 0 0 0 0 0 0 0 
629 633 658 695 736 778 821 862 900 936 971 1011 1051 1090 1126 1166 1209 1256 
 1307 1350 1396 1447 1501 1540 1566 1581 1562 1488 1373 1237 1118 956 781 595 
 412 258 177 158 151 150 154 172 206 233 250 257 251 233 211 186 156 133 113 
 92 79 66 52 0 0 0 0 0 0 0 0 0 0 0 0 0 0 0 0 
629 633 659 696 734 775 817 859 899 939 979 1018 1058 1094 1125 1149 1174 1198 
 1226 1257 1292 1329 1382 1420 1461 1494 1498 1438 1336 1205 1086 921 744 560 
 377 231 153 141 138 134 130 137 162 187 205 213 210 196 180 161 142 122 103 
 88 76 63 50 0 0 0 0 0 0 0 0 0 0 0 0 0 0 0 0 
629 634 661 697 735 774 814 854 891 928 965 996 1030 1059 1078 1090 1099 1106 
 1123 1149 1172 1212 1252 1289 1331 1365 1376 1344 1262 1148 1036 874 699 519 
 343 203 138 128 127 122 110 110 131 153 169 177 175 163 149 134 120 105 93 80 
 69 58 47 0 0 0 0 0 0 0 0 0 0 0 0 0 0 0 0 
629 633 661 697 736 778 819 860 899 940 979 1017 1055 1088 1112 1129 1144 1158 
 1180 1212 1240 1286 1329 1369 1414 1451 1456 1410 1312 1182 1060 890 709 525 
 342 204 138 128 127 122 113 117 142 168 187 193 190 176 160 144 128 109 94 81 
 70 58 47 0 0 0 0 0 0 0 0 0 0 0 0 0 0 0 0 
629 634 662 699 740 782 825 866 905 946 986 1025 1066 1102 1132 1159 1182 1204 
 1234 1271 1306 1356 1407 1447 1488 1520 1513 1454 1348 1213 1083 906 721 537 
 354 216 145 133 131 128 124 133 160 186 205 212 209 194 176 157 136 117 98 85 
 72 59 47 0 0 0 0 0 0 0 0 0 0 0 0 0 0 0 0 
629 635 664 703 745 788 831 871 909 947 983 1023 1063 1103 1142 1186 1231 1281 
 1339 1392 1451 1513 1572 1622 1660 1673 1656 1571 1436 1293 1153 967 774 575 
 391 251 172 151 143 148 156 176 211 240 256 261 252 232 209 184 150 126 106 
 88 74 60 48 0 0 0 0 0 0 0 0 0 0 0 0 0 0 0 0 
629 636 666 705 747 788 826 863 898 931 963 1000 1037 1075 1119 1170 1227 1294 
 1365 1428 1495 1563 1605 1647 1662 1652 1606 1505 1363 1225 1091 917 746 567 
 397 267 192 170 159 162 168 188 222 249 265 268 257 237 214 185 147 126 108 
 89 73 58 47 0 0 0 0 0 0 0 0 0 0 0 0 0 0 0 0 
629 637 666 706 747 789 826 863 898 932 966 1003 1042 1083 1131 1181 1241 1314 
 1387 1449 1516 1578 1618 1648 1654 1636 1583 1481 1341 1206 1085 918 750 571 
 401 273 197 175 163 163 167 186 219 248 265 266 255 234 210 182 147 126 109 
 89 72 58 47 0 0 0 0 0 0 0 0 0 0 0 0 0 0 0 0 
629 636 667 706 746 788 826 864 899 934 970 1012 1053 1095 1136 1184 1242 1312 
 1380 1438 1491 1538 1569 1584 1588 1559 1492 1389 1256 1133 1026 878 729 563 
 404 286 228 200 185 182 174 180 202 222 235 236 227 210 190 165 142 125 110 
 90 72 57 48 0 0 0 0 0 0 0 0 0 0 0 0 0 0 0 0 
629 637 667 706 744 784 822 861 896 932 971 1014 1056 1096 1129 1164 1207 1263 
 1316 1360 1399 1428 1446 1460 1455 1430 1367 1266 1136 1016 923 795 666 530 
 403 314 266 242 226 213 193 192 202 210 216 217 207 192 173 152 133 118 102 
 83 64 52 43 0 0 0 0 0 0 0 0 0 0 0 0 0 0 0 0 
629 637 667 706 742 780 819 854 887 918 951 989 1022 1048 1077 1104 1144 1192 
 1247 1288 1324 1359 1377 1382 1368 1333 1263 1154 1021 895 796 692 589 488 
 401 343 310 284 261 243 223 217 221 225 227 226 217 201 181 158 127 111 94 74 
 60 49 39 0 0 0 0 0 0 0 0 0 0 0 0 0 0 0 0 
629 638 669 707 744 783 823 864 903 941 977 1013 1038 1057 1073 1090 1108 1139 
 1175 1201 1228 1250 1267 1260 1243 1202 1127 1015 880 752 658 568 479 398 330 
 288 265 248 231 208 193 192 205 213 217 218 213 198 179 154 122 105 87 70 58 
 44 34 0 0 0 0 0 0 0 0 0 0 0 0 0 0 0 0 
629 638 669 708 746 784 823 864 904 944 977 998 1004 999 983 966 948 938 940 
 953 976 1004 1034 1042 1035 1005 950 844 720 597 510 433 356 284 225 189 175 
 168 158 145 131 126 138 150 157 164 169 159 144 125 104 83 69 58 49 39 30 0 0 
 0 0 0 0 0 0 0 0 0 0 0 0 0 0 
629 637 668 707 745 781 818 858 897 934 963 974 969 952 924 889 854 820 798 
 797 811 842 869 875 874 850 802 711 598 485 405 341 271 202 141 103 87 88 90 
 90 83 73 79 94 103 115 130 122 108 96 84 71 63 54 46 38 29 0 0 0 0 0 0 0 0 0 
 0 0 0 0 0 0 0 
629 637 667 708 746 783 821 862 902 940 970 984 980 965 938 907 874 841 818 
 809 817 841 865 867 862 844 796 704 593 474 393 326 254 183 120 82 65 67 75 
 79 77 73 85 100 112 123 137 129 115 102 90 74 64 55 46 37 29 0 0 0 0 0 0 0 0 
 0 0 0 0 0 0 0 0 
629 637 667 708 746 783 822 863 904 943 974 991 991 980 959 934 908 882 860 
 846 850 861 880 881 877 856 804 711 601 486 402 338 274 211 155 120 103 99 
 101 99 96 98 115 129 140 151 160 151 135 118 101 78 67 57 47 38 30 0 0 0 0 0 
 0 0 0 0 0 0 0 0 0 0 0 
629 636 665 704 741 780 821 861 901 940 972 997 1010 1011 1006 1003 997 998 
 1006 1015 1028 1051 1070 1076 1072 1047 986 886 754 625 529 452 375 303 243 
 211 199 185 170 161 158 168 187 201 208 212 213 199 180 156 128 101 82 67 57 
 45 35 0 0 0 0 0 0 0 0 0 0 0 0 0 0 0 0 
629 636 664 700 736 775 815 851 886 920 949 979 1005 1021 1037 1055 1075 1103 
 1134 1156 1176 1197 1204 1205 1202 1169 1103 992 863 736 640 553 471 395 330 
 290 275 257 238 218 198 192 204 212 215 216 212 199 182 160 131 114 96 79 65 
 53 42 0 0 0 0 0 0 0 0 0 0 0 0 0 0 0 0 
629 635 662 698 734 774 815 854 892 929 963 1004 1045 1080 1116 1148 1186 1230 
 1272 1304 1333 1352 1360 1364 1352 1328 1260 1153 1022 892 784 682 580 476 
 379 308 279 264 241 222 201 194 203 213 219 224 222 209 192 169 146 128 110 
 89 71 55 46 0 0 0 0 0 0 0 0 0 0 0 0 0 0 0 0 
629 635 661 698 738 779 820 859 897 931 965 1005 1046 1087 1125 1161 1202 1252 
 1295 1328 1357 1375 1388 1385 1383 1368 1320 1238 1123 1002 902 789 663 527 
 397 295 245 227 212 203 191 188 206 220 230 234 225 208 189 168 146 129 113 
 93 71 58 50 0 0 0 0 0 0 0 0 0 0 0 0 0 0 0 0 
629 634 660 698 739 780 820 859 896 930 963 1000 1039 1077 1119 1160 1209 1268 
 1332 1384 1437 1495 1527 1546 1556 1537 1494 1407 1274 1138 1026 885 733 572 
 416 289 217 196 183 182 187 199 227 251 263 268 259 241 219 192 155 132 114 
 92 75 62 53 0 0 0 0 0 0 0 0 0 0 0 0 0 0 0 0 
629 634 658 696 738 780 822 865 904 942 977 1016 1057 1096 1136 1178 1221 1270 
 1324 1370 1417 1462 1504 1539 1561 1571 1550 1481 1361 1223 1101 948 776 597 
 419 268 184 165 161 162 169 183 216 245 263 269 262 243 220 194 161 135 114 
 93 78 64 52 0 0 0 0 0 0 0 0 0 0 0 0 0 0 0 0 
629 633 656 693 734 775 818 861 903 944 984 1023 1063 1100 1131 1157 1182 1208 
 1241 1274 1306 1332 1374 1405 1441 1468 1478 1430 1328 1202 1083 933 760 581 
 401 248 160 145 147 147 145 147 172 199 219 227 222 207 189 168 146 122 104 
 89 76 63 50 0 0 0 0 0 0 0 0 0 0 0 0 0 0 0 0 
629 631 653 690 729 770 810 851 891 932 969 1004 1039 1069 1089 1103 1113 1122 
 1141 1164 1177 1208 1243 1274 1313 1345 1367 1345 1263 1151 1039 893 725 550 
 377 230 148 136 142 141 130 120 136 160 179 187 184 171 155 139 124 108 94 82 
 71 59 48 0 0 0 0 0 0 0 0 0 0 0 0 0 0 0 0 
629 631 652 688 728 769 810 852 891 932 972 1009 1047 1079 1104 1122 1138 1152 
 1173 1199 1215 1248 1287 1322 1362 1400 1418 1387 1297 1174 1060 911 738 562 
 383 235 151 136 140 140 132 128 147 175 194 202 199 185 169 152 134 114 99 86 
 74 61 48 0 0 0 0 0 0 0 0 0 0 0 0 0 0 0 0 
