IESNA:LM-63-2002
[TEST]252p115R
[TESTLAB]METALUX RESEARCH LABS
[ISSUEDATE]06/04/08
[MANUFAC]COOPER LIGHTING - McGRAW-EDISON
[LUMCAT]EPL-168-CF-RD-DLS1
[LUMINAIRE]ENVOY PARKING GARAGE LUMINAIRE WITH FOUR 42WCFL
[MORE]VERTICAL BASE UP POSITION,ROUND DISTRIBUTION 
[MORE]WITH 1 WAY GLARE SHIELD OPTION
[LAMP]FOUR - CF42TTT/E/IN830 - 3200 LUMENS - 42 WATTS
[BALLAST](2)ICF-2S42-M2-LD
TILT=NONE
4 3200 1 73 43 1  1 -1.041667 -1.041667 0.833333
1.000 1 157
0 2.5 5 7.5 10 12.5 15 17.5 20 22.5 25 27.5 30 32.5 35 37.5 40 42.5 45 47.5 50 
 52.5 55 57.5 60 62.5 65 67.5 70 72.5 75 77.5 80 82.5 85 87.5 90 92.5 95 97.5 
 100 102.5 105 107.5 110 112.5 115 117.5 120 122.5 125 127.5 130 132.5 135 
 137.5 140 142.5 145 147.5 150 152.5 155 157.5 160 162.5 165 167.5 170 172.5 
 175 177.5 180 
0 5 15 25 35 45 55 65 75 85 90 95 105 115 125 135 145 150 155 165 175 180 185 
 195 205 210 215 225 235 245 255 265 270 275 285 295 305 315 325 335 345 355 
 360 
608 611 632 668 706 746 785 826 865 904 945 980 1018 1050 1075 1093 1108 1124 
 1147 1172 1189 1221 1259 1294 1334 1369 1384 1346 1254 1132 1021 874 706 532 
 363 223 148 132 134 134 127 124 144 171 190 198 196 182 167 150 133 114 98 85 
 73 60 48 0 0 0 0 0 0 0 0 0 0 0 0 0 0 0 0 
608 611 631 667 705 747 789 831 871 913 954 992 1030 1066 1095 1118 1143 1164 
 1194 1221 1244 1278 1322 1361 1404 1441 1452 1408 1310 1183 1064 910 738 557 
 384 239 160 138 137 138 136 142 165 191 210 219 216 203 185 166 144 122 102 
 87 75 62 49 0 0 0 0 0 0 0 0 0 0 0 0 0 0 0 0 
608 610 631 667 708 751 793 836 875 913 950 988 1028 1066 1102 1140 1181 1223 
 1270 1311 1356 1409 1462 1514 1553 1583 1578 1514 1394 1258 1128 975 798 612 
 431 279 190 160 151 155 163 179 207 235 253 261 256 239 217 192 163 135 114 
 93 78 63 49 0 0 0 0 0 0 0 0 0 0 0 0 0 0 0 0 
608 609 631 667 710 752 795 834 869 904 937 972 1010 1046 1085 1129 1176 1229 
 1288 1339 1393 1457 1510 1553 1590 1604 1587 1510 1384 1242 1110 964 800 628 
 450 298 211 184 176 176 178 187 209 234 251 258 252 234 213 188 157 133 115 
 96 77 62 50 0 0 0 0 0 0 0 0 0 0 0 0 0 0 0 0 
608 610 632 668 710 754 797 838 876 912 949 988 1028 1067 1109 1157 1215 1281 
 1344 1396 1444 1494 1539 1572 1592 1593 1559 1480 1354 1216 1092 954 797 632 
 465 324 248 223 205 192 181 178 196 215 228 235 231 214 196 175 153 136 120 
 101 81 63 52 0 0 0 0 0 0 0 0 0 0 0 0 0 0 0 0 
608 610 633 669 708 750 793 836 876 914 955 996 1037 1080 1125 1170 1224 1290 
 1356 1412 1467 1518 1564 1596 1619 1626 1598 1520 1394 1254 1122 976 817 649 
 488 358 288 259 244 226 206 195 205 217 226 232 228 212 194 172 149 132 116 
 97 74 60 49 0 0 0 0 0 0 0 0 0 0 0 0 0 0 0 0 
608 610 634 670 708 748 790 830 869 906 941 978 1017 1054 1097 1139 1188 1249 
 1311 1369 1424 1484 1542 1590 1629 1647 1633 1558 1427 1284 1149 996 833 671 
 517 400 339 309 287 264 240 221 230 239 249 253 249 231 211 187 156 132 112 
 89 72 58 47 0 0 0 0 0 0 0 0 0 0 0 0 0 0 0 0 
608 610 634 672 711 752 796 842 884 927 967 1008 1052 1093 1133 1176 1220 1272 
 1322 1372 1418 1473 1533 1585 1628 1660 1649 1581 1463 1322 1190 1033 864 695 
 540 428 373 350 328 294 257 228 232 241 249 252 250 234 213 188 159 127 106 
 85 70 56 44 0 0 0 0 0 0 0 0 0 0 0 0 0 0 0 0 
608 611 635 673 715 756 799 843 887 931 972 1011 1050 1087 1115 1139 1165 1191 
 1223 1258 1299 1337 1392 1437 1485 1528 1544 1500 1403 1275 1153 1006 848 691 
 543 437 398 389 364 319 261 206 195 198 203 206 213 197 176 153 129 103 85 71 
 59 47 37 0 0 0 0 0 0 0 0 0 0 0 0 0 0 0 0 
608 611 635 673 714 754 794 836 878 919 958 994 1029 1061 1081 1094 1104 1111 
 1129 1158 1185 1222 1266 1305 1354 1403 1436 1410 1330 1213 1095 956 811 665 
 530 435 406 400 375 326 258 189 163 166 168 170 184 170 149 130 112 94 80 67 
 55 44 34 0 0 0 0 0 0 0 0 0 0 0 0 0 0 0 0 
608 611 635 673 716 755 796 840 883 924 965 1004 1039 1073 1096 1113 1130 1146 
 1170 1202 1236 1279 1327 1365 1411 1452 1474 1441 1356 1239 1122 981 826 678 
 538 442 412 401 376 326 260 195 177 181 184 185 195 179 159 139 120 98 82 69 
 56 44 34 0 0 0 0 0 0 0 0 0 0 0 0 0 0 0 0 
608 611 635 673 714 754 796 841 883 926 966 1005 1044 1080 1109 1135 1160 1187 
 1221 1261 1305 1355 1412 1455 1501 1545 1560 1517 1420 1293 1165 1018 856 701 
 554 447 406 388 362 315 254 200 195 200 203 206 214 196 174 151 130 104 87 72 
 58 46 36 0 0 0 0 0 0 0 0 0 0 0 0 0 0 0 0 
608 611 635 673 712 753 795 839 880 921 960 1003 1046 1087 1127 1168 1215 1265 
 1321 1378 1436 1495 1557 1607 1650 1680 1671 1604 1487 1353 1218 1069 902 736 
 578 455 395 368 335 297 257 229 241 249 255 257 253 233 208 179 145 118 100 
 78 65 52 41 0 0 0 0 0 0 0 0 0 0 0 0 0 0 0 0 
608 610 635 673 712 751 791 830 866 901 934 973 1013 1050 1093 1137 1187 1247 
 1314 1373 1435 1499 1557 1607 1647 1661 1637 1557 1432 1295 1165 1016 858 700 
 542 414 343 315 288 258 227 206 218 229 240 243 238 220 198 174 147 125 107 
 88 69 55 44 0 0 0 0 0 0 0 0 0 0 0 0 0 0 0 0 
608 611 637 674 714 755 795 836 874 911 948 990 1032 1074 1121 1169 1225 1295 
 1364 1422 1476 1527 1574 1614 1636 1643 1606 1516 1392 1248 1123 980 826 663 
 503 366 297 271 247 225 200 192 202 214 224 229 226 209 187 163 142 125 109 
 91 73 59 48 0 0 0 0 0 0 0 0 0 0 0 0 0 0 0 0 
608 612 637 675 717 758 797 835 873 909 943 984 1024 1067 1111 1157 1213 1284 
 1349 1403 1456 1498 1544 1580 1608 1619 1593 1509 1388 1245 1117 972 808 635 
 468 325 250 224 206 193 178 175 195 213 228 236 228 211 190 169 147 130 114 
 96 78 61 51 0 0 0 0 0 0 0 0 0 0 0 0 0 0 0 0 
608 612 638 676 718 760 801 840 877 911 943 980 1019 1055 1095 1138 1189 1249 
 1309 1363 1420 1477 1531 1575 1614 1629 1602 1515 1384 1236 1107 952 782 606 
 430 287 213 187 171 165 165 178 209 234 251 258 251 231 209 182 146 126 109 
 91 74 61 51 0 0 0 0 0 0 0 0 0 0 0 0 0 0 0 0 
608 612 638 676 717 760 802 843 882 917 952 990 1031 1069 1108 1153 1201 1255 
 1313 1363 1421 1484 1537 1596 1636 1658 1635 1550 1421 1274 1135 971 789 602 
 418 271 190 169 159 157 161 181 216 241 258 264 256 235 212 184 148 126 109 
 89 75 62 50 0 0 0 0 0 0 0 0 0 0 0 0 0 0 0 0 
608 613 640 678 718 761 803 845 883 921 957 997 1036 1075 1111 1150 1192 1236 
 1284 1327 1371 1424 1483 1533 1571 1595 1581 1511 1392 1249 1121 955 778 589 
 402 251 170 151 143 142 145 162 197 223 240 247 241 223 201 177 148 126 107 
 88 75 62 49 0 0 0 0 0 0 0 0 0 0 0 0 0 0 0 0 
608 615 641 677 715 756 798 840 880 920 959 998 1037 1073 1102 1126 1150 1171 
 1198 1228 1261 1297 1350 1389 1429 1466 1475 1418 1316 1180 1059 896 722 541 
 363 219 148 135 130 127 123 130 154 177 196 203 201 187 171 153 134 116 98 84 
 72 59 48 0 0 0 0 0 0 0 0 0 0 0 0 0 0 0 0 
608 615 642 678 715 754 794 833 869 907 943 975 1008 1036 1056 1068 1077 1084 
 1100 1127 1149 1185 1226 1262 1304 1339 1352 1318 1231 1106 987 830 666 495 
 325 193 134 122 120 115 105 105 125 146 162 170 169 158 144 130 117 102 89 78 
 67 56 46 0 0 0 0 0 0 0 0 0 0 0 0 0 0 0 0 
608 615 642 678 716 757 798 838 878 917 957 994 1032 1065 1091 1109 1124 1139 
 1161 1193 1220 1264 1304 1342 1384 1413 1413 1361 1262 1133 1010 846 671 494 
 323 194 130 116 114 110 104 109 135 160 180 187 186 172 156 140 124 107 92 79 
 67 56 45 0 0 0 0 0 0 0 0 0 0 0 0 0 0 0 0 
608 615 642 678 718 759 801 841 880 921 959 998 1037 1073 1103 1131 1154 1176 
 1204 1240 1273 1319 1370 1407 1446 1478 1470 1408 1297 1162 1030 862 683 503 
 328 199 131 115 112 110 110 122 150 177 196 205 203 188 171 153 132 114 95 82 
 70 57 46 0 0 0 0 0 0 0 0 0 0 0 0 0 0 0 0 
608 615 642 679 721 762 803 843 879 917 951 990 1030 1069 1107 1151 1193 1242 
 1297 1347 1402 1459 1513 1555 1587 1596 1577 1492 1360 1220 1081 904 714 525 
 347 211 136 114 108 116 128 153 192 224 242 249 242 223 201 175 143 120 101 
 84 71 57 46 0 0 0 0 0 0 0 0 0 0 0 0 0 0 0 0 
608 614 642 680 719 759 795 832 865 898 929 964 1000 1038 1081 1127 1179 1242 
 1307 1364 1425 1486 1522 1555 1562 1547 1498 1396 1257 1121 995 830 668 497 
 331 204 128 110 103 111 124 152 192 224 244 249 241 222 199 173 136 118 102 
 84 68 55 45 0 0 0 0 0 0 0 0 0 0 0 0 0 0 0 0 
608 614 641 679 718 757 793 829 864 899 931 969 1007 1047 1092 1141 1199 1269 
 1337 1395 1454 1507 1542 1560 1555 1530 1469 1368 1230 1091 966 803 642 474 
 318 194 124 105 102 112 122 142 178 208 227 233 227 210 190 164 134 118 102 
 84 68 55 46 0 0 0 0 0 0 0 0 0 0 0 0 0 0 0 0 
608 614 642 679 717 756 793 830 863 897 932 973 1012 1052 1089 1132 1182 1244 
 1302 1353 1397 1433 1460 1468 1462 1431 1363 1261 1132 1009 903 763 620 460 
 306 191 126 105 99 106 112 131 164 191 209 215 209 192 174 153 132 117 103 85 
 68 54 46 0 0 0 0 0 0 0 0 0 0 0 0 0 0 0 0 
608 614 641 678 713 751 788 825 859 893 930 971 1011 1048 1077 1108 1143 1194 
 1241 1278 1311 1332 1346 1352 1340 1309 1241 1136 1003 883 789 665 534 397 
 267 169 115 99 97 106 109 128 157 179 193 199 191 177 161 143 125 112 97 79 
 61 49 40 0 0 0 0 0 0 0 0 0 0 0 0 0 0 0 0 
608 614 641 676 710 746 785 817 848 878 909 944 974 997 1021 1043 1076 1117 
 1163 1197 1223 1248 1261 1256 1234 1190 1121 1014 880 755 656 549 443 334 234 
 158 113 94 91 101 115 140 170 191 205 209 202 185 168 147 118 103 88 70 57 46 
 36 0 0 0 0 0 0 0 0 0 0 0 0 0 0 0 0 
608 615 642 677 712 749 787 826 862 898 932 964 983 997 1007 1017 1027 1049 
 1077 1095 1115 1127 1136 1125 1098 1052 979 871 736 604 511 430 348 265 187 
 127 93 80 80 84 99 126 159 181 194 199 196 183 165 143 113 97 81 65 54 41 31 
 0 0 0 0 0 0 0 0 0 0 0 0 0 0 0 0 
608 614 641 678 713 748 786 824 862 898 929 946 946 935 915 891 867 848 841 
 846 859 877 900 901 889 855 801 694 571 447 365 304 245 187 130 88 67 64 66 
 69 72 81 104 123 135 141 140 134 123 109 92 76 64 55 45 36 27 0 0 0 0 0 0 0 0 
 0 0 0 0 0 0 0 0 
608 614 641 677 712 747 781 819 854 888 915 922 913 892 860 823 783 744 717 
 708 714 739 758 757 748 717 665 574 460 352 281 234 189 144 101 71 56 57 62 
 66 63 57 66 83 94 100 100 97 90 83 75 67 60 51 43 35 27 0 0 0 0 0 0 0 0 0 0 0 
 0 0 0 0 0 
608 613 640 677 713 749 784 823 860 894 923 935 927 909 879 845 809 772 744 
 729 727 742 758 755 745 718 666 571 463 347 272 228 182 140 98 69 57 57 61 66 
 64 62 76 93 106 114 115 110 102 92 82 70 61 52 44 35 27 0 0 0 0 0 0 0 0 0 0 0 
 0 0 0 0 0 
608 613 640 677 713 749 786 825 862 898 926 941 938 923 899 872 842 813 787 
 769 765 767 778 771 758 732 673 580 469 360 287 241 195 150 105 74 61 60 63 
 67 69 77 99 118 131 140 139 131 120 107 92 74 63 54 45 35 28 0 0 0 0 0 0 0 0 
 0 0 0 0 0 0 0 0 
608 613 638 673 708 745 784 822 858 894 923 946 957 956 949 944 937 936 941 
 943 947 962 972 968 953 919 853 749 621 496 408 341 275 208 147 103 86 78 73 
 79 94 121 155 181 195 203 200 188 170 148 120 97 78 64 54 43 33 0 0 0 0 0 0 0 
 0 0 0 0 0 0 0 0 0 
608 612 637 670 703 739 777 811 842 873 900 929 953 966 981 996 1013 1037 1064 
 1080 1093 1107 1106 1097 1083 1041 971 862 735 609 518 438 355 271 190 127 96 
 87 85 92 102 121 154 176 191 197 193 182 167 148 124 108 92 75 63 51 40 0 0 0 
 0 0 0 0 0 0 0 0 0 0 0 0 0 
608 612 635 668 703 741 779 816 851 886 919 957 994 1028 1059 1088 1120 1159 
 1195 1221 1246 1259 1262 1259 1240 1211 1139 1032 904 776 674 571 466 352 242 
 152 106 98 93 100 106 124 155 178 194 204 201 190 175 156 136 120 104 84 66 
 51 44 0 0 0 0 0 0 0 0 0 0 0 0 0 0 0 0 
608 611 634 668 706 745 784 821 856 889 920 958 997 1035 1071 1105 1144 1191 
 1231 1261 1287 1303 1312 1305 1298 1275 1225 1139 1026 906 810 696 570 431 
 297 183 124 111 107 113 121 137 169 195 211 221 215 199 180 161 140 124 109 
 90 68 55 48 0 0 0 0 0 0 0 0 0 0 0 0 0 0 0 0 
608 611 633 669 708 748 786 823 857 890 921 957 993 1028 1068 1108 1154 1209 
 1271 1320 1370 1424 1453 1470 1477 1455 1410 1321 1193 1060 949 810 661 499 
 343 211 136 118 112 121 135 157 196 226 244 252 247 228 207 182 147 126 109 
 88 72 59 51 0 0 0 0 0 0 0 0 0 0 0 0 0 0 0 0 
608 611 634 669 709 749 789 830 869 905 939 976 1015 1053 1089 1129 1169 1214 
 1264 1307 1349 1391 1430 1462 1481 1489 1468 1399 1285 1151 1035 884 713 536 
 359 214 132 115 114 121 133 154 191 223 242 252 247 230 209 184 154 129 109 
 89 75 62 50 0 0 0 0 0 0 0 0 0 0 0 0 0 0 0 0 
608 610 632 667 706 746 787 828 868 909 947 984 1023 1057 1085 1109 1132 1155 
 1186 1217 1244 1271 1310 1339 1374 1403 1414 1369 1270 1144 1026 876 709 536 
 354 212 132 121 122 124 124 128 155 183 203 212 209 195 178 160 139 117 100 
 86 74 61 49 0 0 0 0 0 0 0 0 0 0 0 0 0 0 0 0 
608 610 631 666 705 744 783 822 861 899 936 969 1002 1030 1049 1062 1071 1081 
 1100 1122 1134 1164 1200 1232 1271 1305 1328 1306 1221 1104 989 844 681 514 
 347 209 137 126 131 129 119 111 129 152 171 178 176 164 150 135 120 105 92 80 
 69 58 47 0 0 0 0 0 0 0 0 0 0 0 0 0 0 0 0 
608 611 632 668 706 746 785 826 865 904 945 980 1018 1050 1075 1093 1108 1124 
 1147 1172 1189 1221 1259 1294 1334 1369 1384 1346 1254 1132 1021 874 706 532 
 363 223 148 132 134 134 127 124 144 171 190 198 196 182 167 150 133 114 98 85 
 73 60 48 0 0 0 0 0 0 0 0 0 0 0 0 0 0 0 0 
