IESNA:LM-63-2002
[TEST]252p120R
[TESTLAB]METALUX RESEARCH LABS
[ISSUEDATE]06/04/08
[MANUFAC]COOPER LIGHTING - McGRAW-EDISON
[LUMCAT]EPL-168-CF-SQ-DLS1
[LUMINAIRE]ENVOY PARKING GARAGE LUMINAIRE WITH FOUR 42WCFL
[MORE]VERTICAL BASE UP POSITION,SQUARE DISTRIBUTION 
[MORE]WITH 1 WAY GLARE SHIELD OPTION
[LAMP]FOUR - CF42TTT/E/IN830 - 3200 LUMENS - 42 WATTS
[BALLAST](2)ICF-2S42-M2-LD
TILT=NONE
4 3200 1 73 41 1  1 -1.041667 -1.041667 0.833333
1.000 1 147
0 2.5 5 7.5 10 12.5 15 17.5 20 22.5 25 27.5 30 32.5 35 37.5 40 42.5 45 47.5 50 
 52.5 55 57.5 60 62.5 65 67.5 70 72.5 75 77.5 80 82.5 85 87.5 90 92.5 95 97.5 
 100 102.5 105 107.5 110 112.5 115 117.5 120 122.5 125 127.5 130 132.5 135 
 137.5 140 142.5 145 147.5 150 152.5 155 157.5 160 162.5 165 167.5 170 172.5 
 175 177.5 180 
0 5 15 25 35 45 55 65 75 85 90 95 105 115 125 135 145 155 165 175 180 185 195 
 205 215 225 235 245 255 265 270 275 285 295 305 315 325 335 345 355 360 
604 608 632 666 703 741 779 817 853 888 922 956 990 1017 1037 1048 1056 1062 
 1072 1083 1099 1143 1194 1237 1267 1282 1266 1223 1108 1001 903 803 661 481 
 318 185 127 119 120 117 104 93 101 122 143 158 163 156 144 130 116 101 88 77 
 65 55 43 0 0 0 0 0 0 0 0 0 0 0 0 0 0 0 0 
604 608 632 668 706 745 785 826 865 903 940 977 1015 1048 1073 1091 1107 1120 
 1135 1149 1173 1225 1273 1315 1338 1343 1316 1251 1148 1036 938 831 683 511 
 339 206 141 130 130 126 118 111 122 147 167 181 185 178 163 146 127 109 93 80 
 67 55 43 0 0 0 0 0 0 0 0 0 0 0 0 0 0 0 0 
604 608 634 671 712 752 793 834 871 906 942 981 1022 1059 1093 1126 1159 1190 
 1219 1242 1273 1319 1383 1442 1486 1507 1486 1405 1284 1150 1022 881 714 539 
 378 242 171 152 146 148 149 155 175 201 221 232 231 218 199 176 147 124 102 
 84 71 57 44 0 0 0 0 0 0 0 0 0 0 0 0 0 0 0 0 
604 609 635 672 713 754 795 832 867 901 933 973 1012 1051 1093 1139 1187 1234 
 1279 1313 1349 1397 1444 1498 1545 1567 1569 1504 1374 1244 1107 943 765 588 
 416 261 193 178 173 174 177 188 206 229 243 250 246 232 210 184 149 127 108 
 86 72 57 44 0 0 0 0 0 0 0 0 0 0 0 0 0 0 0 0 
604 609 636 674 714 755 795 833 870 905 939 979 1019 1061 1109 1168 1239 1323 
 1398 1459 1520 1584 1634 1669 1685 1682 1663 1600 1487 1366 1242 1070 865 662 
 463 297 223 210 201 196 192 193 205 223 238 246 244 231 211 182 149 128 111 
 91 72 57 47 0 0 0 0 0 0 0 0 0 0 0 0 0 0 0 0 
604 609 637 675 714 756 797 836 874 909 947 989 1034 1079 1132 1203 1287 1382 
 1469 1538 1608 1677 1731 1768 1783 1772 1734 1663 1552 1439 1328 1151 930 714 
 504 324 255 241 234 222 203 190 196 204 214 220 215 204 189 173 154 133 113 
 91 70 55 45 0 0 0 0 0 0 0 0 0 0 0 0 0 0 0 0 
604 610 638 676 714 753 794 832 868 904 941 981 1023 1069 1124 1182 1258 1346 
 1425 1490 1547 1613 1666 1717 1749 1756 1740 1673 1568 1448 1325 1152 955 741 
 537 357 287 272 259 246 227 219 223 230 238 243 241 226 206 181 145 123 103 
 83 64 52 42 0 0 0 0 0 0 0 0 0 0 0 0 0 0 0 0 
604 611 639 678 715 755 797 840 880 918 956 1000 1044 1088 1134 1185 1239 1296 
 1351 1392 1440 1490 1536 1591 1636 1670 1658 1576 1456 1320 1180 1017 835 650 
 478 366 315 302 289 266 238 216 219 229 239 244 244 227 210 183 147 125 103 
 80 65 50 39 0 0 0 0 0 0 0 0 0 0 0 0 0 0 0 0 
604 611 639 679 718 757 799 841 882 921 960 999 1040 1076 1106 1135 1162 1190 
 1215 1241 1271 1304 1354 1404 1453 1484 1484 1426 1318 1183 1056 919 761 603 
 467 369 332 328 317 288 243 196 181 185 195 203 215 206 188 163 133 106 85 70 
 57 45 34 0 0 0 0 0 0 0 0 0 0 0 0 0 0 0 0 
604 611 639 679 719 757 796 837 878 915 952 984 1016 1043 1061 1072 1082 1088 
 1101 1120 1135 1168 1213 1256 1302 1329 1332 1292 1204 1104 1018 904 750 597 
 450 350 325 330 322 292 233 164 130 132 138 147 166 175 157 133 110 89 74 61 
 49 39 30 0 0 0 0 0 0 0 0 0 0 0 0 0 0 0 0 
604 611 639 679 720 757 796 836 875 912 947 978 1009 1035 1051 1060 1066 1068 
 1079 1096 1113 1146 1192 1235 1278 1311 1316 1278 1184 1075 982 870 750 616 
 469 350 328 335 327 295 236 164 126 128 134 141 157 170 151 129 107 88 74 61 
 50 40 31 0 0 0 0 0 0 0 0 0 0 0 0 0 0 0 0 
604 611 639 679 720 759 799 840 881 919 954 989 1022 1052 1072 1086 1099 1111 
 1127 1146 1172 1206 1261 1301 1342 1359 1350 1299 1213 1115 1026 904 766 626 
 485 362 335 337 332 301 244 178 146 144 152 161 176 181 162 140 117 93 77 64 
 52 41 32 0 0 0 0 0 0 0 0 0 0 0 0 0 0 0 0 
604 610 638 677 716 756 798 839 880 918 955 995 1035 1074 1107 1138 1168 1202 
 1235 1260 1294 1333 1385 1436 1479 1509 1500 1442 1339 1214 1095 963 808 644 
 491 385 350 344 326 299 258 214 198 200 206 209 220 211 193 166 137 106 85 69 
 57 45 35 0 0 0 0 0 0 0 0 0 0 0 0 0 0 0 0 
604 609 637 674 711 750 791 832 869 905 940 979 1020 1060 1102 1147 1196 1250 
 1304 1347 1392 1443 1497 1541 1593 1611 1605 1547 1448 1324 1200 1056 886 704 
 526 397 340 325 311 286 256 227 225 229 233 238 237 224 207 181 145 121 101 
 80 65 51 40 0 0 0 0 0 0 0 0 0 0 0 0 0 0 0 0 
604 608 635 672 709 749 790 830 866 903 938 980 1023 1064 1113 1165 1227 1298 
 1369 1432 1495 1555 1613 1654 1680 1681 1653 1598 1518 1405 1290 1131 936 731 
 546 387 313 304 287 268 239 217 217 225 232 237 237 223 203 180 150 128 109 
 89 69 54 44 0 0 0 0 0 0 0 0 0 0 0 0 0 0 0 0 
604 608 633 671 711 753 794 834 872 907 942 984 1024 1067 1113 1167 1235 1321 
 1405 1474 1542 1614 1676 1719 1734 1728 1691 1631 1540 1431 1330 1177 980 784 
 577 382 283 264 252 239 219 203 201 207 211 219 218 205 190 171 153 132 112 
 92 72 57 48 0 0 0 0 0 0 0 0 0 0 0 0 0 0 0 0 
604 608 633 671 712 753 793 830 868 902 935 971 1012 1049 1094 1141 1202 1279 
 1360 1428 1489 1551 1604 1643 1676 1682 1673 1621 1533 1410 1289 1141 950 750 
 548 360 250 232 218 212 210 208 222 234 244 252 248 234 215 188 154 130 112 
 91 73 59 48 0 0 0 0 0 0 0 0 0 0 0 0 0 0 0 0 
604 608 632 671 713 753 794 833 870 907 941 978 1018 1057 1097 1142 1187 1240 
 1293 1334 1376 1424 1470 1520 1548 1572 1565 1519 1413 1278 1147 989 823 645 
 455 298 211 187 184 185 189 196 216 235 251 258 254 238 219 194 156 127 108 
 88 74 60 48 0 0 0 0 0 0 0 0 0 0 0 0 0 0 0 0 
604 609 632 669 708 749 790 830 867 906 946 982 1021 1057 1088 1117 1147 1174 
 1201 1219 1241 1267 1310 1351 1388 1409 1408 1371 1280 1150 1019 873 717 557 
 406 268 183 159 158 158 152 146 155 177 196 206 209 202 187 168 144 120 100 
 85 72 60 47 0 0 0 0 0 0 0 0 0 0 0 0 0 0 0 0 
604 608 630 667 704 743 782 822 859 896 933 965 999 1029 1049 1063 1075 1085 
 1098 1114 1126 1150 1184 1216 1253 1282 1297 1273 1179 1061 958 843 694 537 
 388 238 156 138 135 134 121 107 109 131 155 168 171 169 157 142 124 106 92 79 
 67 56 46 0 0 0 0 0 0 0 0 0 0 0 0 0 0 0 0 
604 608 630 665 702 740 779 817 852 887 923 954 986 1015 1034 1046 1055 1062 
 1074 1092 1102 1126 1165 1201 1237 1270 1284 1259 1173 1052 944 831 706 558 
 409 241 149 128 128 127 114 99 102 122 147 161 165 162 151 139 122 104 91 78 
 67 56 45 0 0 0 0 0 0 0 0 0 0 0 0 0 0 0 0 
604 608 629 664 701 740 779 818 856 894 932 968 1005 1038 1064 1082 1099 1113 
 1128 1147 1164 1190 1228 1258 1299 1323 1330 1284 1185 1066 952 832 700 555 
 393 232 145 120 121 122 116 108 114 139 165 178 185 181 169 154 135 113 96 83 
 70 58 46 0 0 0 0 0 0 0 0 0 0 0 0 0 0 0 0 
604 607 627 662 700 740 781 820 857 895 930 968 1006 1040 1075 1107 1139 1171 
 1201 1223 1253 1287 1335 1379 1418 1447 1441 1396 1290 1158 1017 866 714 544 
 372 231 153 127 119 126 135 142 160 188 211 223 225 217 202 180 153 124 103 
 86 73 60 47 0 0 0 0 0 0 0 0 0 0 0 0 0 0 0 0 
604 605 626 660 699 739 778 815 849 881 913 949 986 1021 1061 1105 1150 1197 
 1247 1291 1340 1390 1430 1461 1481 1487 1486 1416 1293 1168 1036 887 744 572 
 396 244 151 123 119 131 147 165 190 218 241 251 246 232 211 187 154 128 109 
 88 73 59 46 0 0 0 0 0 0 0 0 0 0 0 0 0 0 0 0 
604 604 624 657 696 735 773 809 843 876 909 946 984 1021 1057 1101 1156 1221 
 1288 1346 1408 1463 1508 1528 1520 1498 1456 1366 1252 1134 1024 876 725 552 
 385 240 147 125 114 119 129 144 175 204 224 234 229 214 194 172 145 126 111 
 93 73 57 48 0 0 0 0 0 0 0 0 0 0 0 0 0 0 0 0 
604 603 624 655 691 728 766 804 838 869 904 944 983 1022 1061 1099 1146 1205 
 1261 1310 1357 1388 1411 1412 1381 1351 1304 1244 1157 1053 963 831 669 500 
 342 212 132 111 108 112 116 127 153 177 192 202 208 190 176 160 142 125 108 
 87 67 51 43 0 0 0 0 0 0 0 0 0 0 0 0 0 0 0 0 
604 603 623 654 686 721 758 792 824 854 886 921 954 981 1013 1048 1097 1147 
 1197 1230 1261 1291 1301 1297 1281 1252 1203 1123 1023 916 822 719 602 460 
 311 189 122 100 95 105 119 139 166 184 198 208 208 201 188 168 139 116 96 76 
 59 49 38 0 0 0 0 0 0 0 0 0 0 0 0 0 0 0 0 
604 603 622 654 686 721 758 795 830 864 895 924 945 960 972 987 1001 1019 1033 
 1036 1043 1056 1069 1081 1072 1037 970 882 776 662 558 476 391 304 225 155 
 109 86 85 91 106 126 154 173 187 197 200 194 180 160 134 111 91 71 59 46 35 0 
 0 0 0 0 0 0 0 0 0 0 0 0 0 0 0 
604 603 623 655 690 724 761 798 835 870 895 908 911 904 888 870 851 836 821 
 812 814 828 860 873 864 825 764 689 605 517 444 377 304 227 172 128 91 74 72 
 76 87 98 117 137 150 162 165 160 149 134 115 93 75 63 51 40 30 0 0 0 0 0 0 0 
 0 0 0 0 0 0 0 0 0 
604 604 623 656 691 724 758 795 832 862 880 883 874 854 823 786 747 710 684 
 673 681 712 741 739 715 661 586 524 471 399 341 302 259 203 148 101 69 58 60 
 64 61 57 68 86 98 109 112 111 103 94 85 71 62 53 44 35 27 0 0 0 0 0 0 0 0 0 0 
 0 0 0 0 0 0 
604 604 623 655 690 723 756 793 828 858 875 877 867 845 814 777 738 699 672 
 664 679 713 741 732 701 651 574 507 453 382 327 290 255 204 148 100 68 58 60 
 65 61 54 63 80 91 99 103 101 95 87 79 69 60 51 43 35 27 0 0 0 0 0 0 0 0 0 0 0 
 0 0 0 0 0 
604 604 623 656 691 724 759 797 833 864 882 886 877 857 830 796 761 727 699 
 682 688 718 736 725 700 651 581 513 459 388 335 301 262 209 149 102 73 61 62 
 67 65 64 80 98 112 120 124 120 111 101 90 74 63 53 44 35 27 0 0 0 0 0 0 0 0 0 
 0 0 0 0 0 0 0 
604 603 623 655 689 723 760 799 834 863 884 896 896 889 875 859 844 831 822 
 815 818 834 858 864 849 807 744 667 575 482 410 355 292 225 166 119 91 76 73 
 82 92 106 129 150 163 172 174 167 154 137 116 92 77 60 50 41 31 0 0 0 0 0 0 0 
 0 0 0 0 0 0 0 0 0 
604 603 623 656 688 723 760 794 825 853 876 900 915 925 935 951 964 984 1003 
 1010 1021 1033 1034 1037 1032 997 935 841 718 600 513 442 355 266 193 139 99 
 84 87 97 113 132 153 172 188 199 201 196 181 161 130 114 96 75 61 49 39 0 0 0 
 0 0 0 0 0 0 0 0 0 0 0 0 0 
604 603 624 656 690 726 762 797 830 863 894 932 967 995 1029 1066 1112 1173 
 1233 1273 1307 1332 1332 1321 1285 1236 1171 1083 982 876 787 678 559 421 285 
 163 109 101 98 108 117 134 158 178 198 210 212 205 191 169 143 124 107 89 68 
 55 43 0 0 0 0 0 0 0 0 0 0 0 0 0 0 0 0 
604 604 625 659 694 732 768 803 836 868 900 940 980 1018 1056 1107 1171 1245 
 1302 1344 1384 1408 1420 1402 1373 1332 1277 1206 1101 993 905 776 620 463 
 305 182 121 110 108 113 117 128 152 172 189 201 198 188 176 160 145 128 110 
 91 73 54 46 0 0 0 0 0 0 0 0 0 0 0 0 0 0 0 0 
604 605 627 661 699 737 773 808 841 871 903 940 979 1018 1058 1103 1158 1222 
 1284 1330 1370 1408 1422 1431 1421 1400 1366 1290 1179 1062 953 801 637 466 
 319 205 133 117 113 120 132 149 186 215 233 242 236 221 201 176 147 129 114 
 94 74 59 49 0 0 0 0 0 0 0 0 0 0 0 0 0 0 0 0 
604 605 628 663 701 741 782 820 855 888 922 961 999 1040 1081 1126 1170 1215 
 1261 1292 1328 1368 1396 1438 1466 1481 1457 1368 1239 1109 982 823 656 494 
 330 201 128 116 115 123 137 157 192 222 240 251 248 232 211 186 152 129 110 
 88 75 61 48 0 0 0 0 0 0 0 0 0 0 0 0 0 0 0 0 
604 607 630 664 702 740 781 821 859 895 933 972 1011 1046 1077 1104 1130 1153 
 1172 1177 1194 1224 1271 1317 1350 1356 1345 1282 1165 1030 907 771 611 454 
 311 190 125 116 117 118 120 125 146 171 191 205 209 202 186 166 142 121 101 
 85 72 60 47 0 0 0 0 0 0 0 0 0 0 0 0 0 0 0 0 
604 607 631 665 701 738 777 814 852 888 923 958 993 1020 1042 1053 1063 1071 
 1082 1089 1103 1141 1182 1217 1244 1253 1241 1193 1089 987 879 763 611 447 
 302 175 123 117 118 114 104 94 104 125 146 160 167 162 150 135 119 104 91 79 
 67 56 44 0 0 0 0 0 0 0 0 0 0 0 0 0 0 0 0 
604 608 632 666 703 741 779 817 853 888 922 956 990 1017 1037 1048 1056 1062 
 1072 1083 1099 1143 1194 1237 1267 1282 1266 1223 1108 1001 903 803 661 481 
 318 185 127 119 120 117 104 93 101 122 143 158 163 156 144 130 116 101 88 77 
 65 55 43 0 0 0 0 0 0 0 0 0 0 0 0 0 0 0 0 
