IESNA:LM-63-2002
[TEST]252p126R
[TESTLAB]METALUX RESEARCH LABS
[ISSUEDATE]06/04/08
[MANUFAC]COOPER LIGHTING - McGRAW-EDISON
[LUMCAT]EPL-168-CF-TG-DLS2
[LUMINAIRE]ENVOY PARKING GARAGE LUMINAIRE WITH FOUR 42WCFL
[MORE]VERTICAL BASE UP POSITION,RECTANGULAR DISTRIBUTION 
[MORE]WITH 2 WAY GLARE SHIELD OPTION
[LAMP]FOUR - CF42TTT/E/IN830 - 3200 LUMENS - 42 WATTS
[BALLAST](2)ICF -2S42-M2-LD
TILT=NONE
4 3200 1 73 43 1  1 -1.041667 -1.041667 0.833333
1.000 1 155
0 2.5 5 7.5 10 12.5 15 17.5 20 22.5 25 27.5 30 32.5 35 37.5 40 42.5 45 47.5 50 
 52.5 55 57.5 60 62.5 65 67.5 70 72.5 75 77.5 80 82.5 85 87.5 90 92.5 95 97.5 
 100 102.5 105 107.5 110 112.5 115 117.5 120 122.5 125 127.5 130 132.5 135 
 137.5 140 142.5 145 147.5 150 152.5 155 157.5 160 162.5 165 167.5 170 172.5 
 175 177.5 180 
0 5 15 25 35 45 55 65 75 85 90 95 105 115 125 135 145 155 157.5 165 175 180 
 185 195 202.5 205 215 225 235 245 255 265 270 275 285 295 305 315 325 335 345 
 355 360 
617 620 644 681 719 760 800 841 880 919 956 990 1024 1052 1072 1085 1095 1107 
 1128 1154 1173 1213 1256 1297 1342 1378 1405 1379 1285 1167 1049 897 729 549 
 369 222 145 137 141 139 127 118 137 161 179 186 181 168 153 138 123 107 94 82 
 71 59 48 0 0 0 0 0 0 0 0 0 0 0 0 0 0 0 0 
617 620 642 679 718 759 799 841 880 921 961 997 1035 1068 1093 1111 1127 1143 
 1169 1199 1224 1267 1313 1355 1397 1433 1446 1403 1310 1186 1072 917 744 558 
 374 227 150 136 140 139 132 129 151 178 197 204 201 186 170 153 135 115 100 
 87 74 61 48 0 0 0 0 0 0 0 0 0 0 0 0 0 0 0 0 
617 619 641 678 718 759 803 846 886 926 965 1005 1046 1083 1116 1147 1179 1211 
 1251 1286 1326 1372 1431 1483 1531 1572 1580 1521 1408 1273 1147 985 804 610 
 418 259 174 152 147 151 155 165 194 225 244 251 245 228 207 184 159 131 109 
 91 78 64 50 0 0 0 0 0 0 0 0 0 0 0 0 0 0 0 0 
617 618 640 676 718 760 802 843 880 916 951 989 1030 1067 1105 1149 1196 1246 
 1303 1352 1406 1470 1520 1563 1591 1602 1597 1543 1426 1295 1161 998 818 634 
 445 286 196 170 165 172 179 193 218 245 262 269 263 244 221 195 164 137 117 
 94 78 63 50 0 0 0 0 0 0 0 0 0 0 0 0 0 0 0 0 
617 618 639 675 716 758 800 837 872 907 942 980 1021 1060 1102 1146 1199 1261 
 1325 1381 1440 1496 1541 1561 1565 1545 1520 1455 1339 1210 1090 937 753 592 
 433 298 219 198 188 184 183 188 207 228 242 248 243 227 207 183 155 135 119 
 100 80 64 52 0 0 0 0 0 0 0 0 0 0 0 0 0 0 0 0 
617 617 639 675 714 755 796 835 871 906 942 983 1025 1067 1109 1150 1196 1252 
 1303 1341 1378 1407 1429 1436 1427 1409 1368 1295 1188 1081 993 887 745 599 
 450 315 251 230 215 202 188 180 188 196 204 208 204 192 177 164 149 132 115 
 95 73 57 48 0 0 0 0 0 0 0 0 0 0 0 0 0 0 0 0 
617 617 639 673 709 747 787 824 860 895 932 971 1013 1052 1089 1123 1166 1217 
 1266 1302 1329 1359 1379 1383 1378 1353 1305 1218 1107 991 893 795 688 562 
 441 334 278 259 242 226 209 204 212 212 216 220 219 208 194 175 146 123 105 
 83 64 52 43 0 0 0 0 0 0 0 0 0 0 0 0 0 0 0 0 
617 617 638 673 707 744 784 822 859 896 931 969 1006 1032 1053 1076 1101 1131 
 1160 1169 1173 1183 1190 1187 1178 1147 1075 969 851 738 638 564 489 407 333 
 290 277 270 254 234 211 196 198 197 203 207 208 197 185 168 140 118 98 77 63 
 50 39 0 0 0 0 0 0 0 0 0 0 0 0 0 0 0 0 
617 617 638 673 710 747 786 825 864 904 940 971 990 994 986 976 964 955 943 
 927 917 916 930 930 924 899 838 755 662 567 495 443 378 309 254 216 198 195 
 185 173 159 150 151 154 162 170 177 171 160 144 125 99 80 65 53 42 32 0 0 0 0 
 0 0 0 0 0 0 0 0 0 0 0 0 
617 617 638 673 711 748 784 822 860 899 936 957 959 946 918 885 850 813 780 
 753 739 738 757 757 750 718 658 583 516 456 411 371 320 256 193 145 119 109 
 104 104 96 84 85 93 103 113 123 128 117 103 90 73 62 51 42 33 25 0 0 0 0 0 0 
 0 0 0 0 0 0 0 0 0 0 
617 617 638 672 710 746 781 817 855 892 928 948 947 931 902 865 826 784 748 
 726 715 728 751 751 736 700 639 565 509 457 411 364 306 236 168 115 85 74 72 
 76 73 65 67 79 90 100 109 118 106 94 84 70 60 51 41 33 24 0 0 0 0 0 0 0 0 0 0 
 0 0 0 0 0 0 
617 617 638 672 711 746 782 820 859 897 933 955 957 942 915 881 845 808 772 
 746 734 739 760 755 738 700 641 572 514 459 413 368 310 239 167 111 83 71 71 
 75 74 70 80 93 107 116 125 128 116 103 91 73 62 52 42 33 25 0 0 0 0 0 0 0 0 0 
 0 0 0 0 0 0 0 
617 617 638 672 710 745 783 822 859 897 931 958 970 966 952 932 911 894 877 
 861 853 850 871 874 863 837 780 705 620 537 468 417 360 292 228 185 170 155 
 139 134 128 125 141 147 155 161 169 162 150 131 113 87 73 57 47 37 28 0 0 0 0 
 0 0 0 0 0 0 0 0 0 0 0 0 
617 616 638 672 708 743 781 818 852 885 915 949 977 992 1002 1010 1021 1037 
 1058 1066 1072 1081 1090 1088 1083 1048 991 897 786 675 580 511 446 373 303 
 258 241 224 206 190 180 174 180 183 191 196 196 188 174 155 128 108 91 73 57 
 46 36 0 0 0 0 0 0 0 0 0 0 0 0 0 0 0 0 
617 616 639 673 709 746 783 820 853 887 919 957 998 1032 1062 1088 1117 1153 
 1192 1218 1238 1257 1270 1269 1258 1222 1161 1069 965 856 760 679 588 491 401 
 326 288 272 247 226 203 188 188 192 200 203 201 190 178 159 136 117 101 83 64 
 51 42 0 0 0 0 0 0 0 0 0 0 0 0 0 0 0 0 
617 617 639 675 712 751 789 827 861 892 923 963 1003 1047 1085 1120 1160 1210 
 1259 1291 1322 1346 1363 1360 1345 1322 1278 1209 1117 1010 927 833 709 577 
 442 319 252 230 211 195 178 171 177 181 189 196 194 183 170 154 140 124 107 
 89 72 55 47 0 0 0 0 0 0 0 0 0 0 0 0 0 0 0 0 
617 617 641 677 717 756 795 831 865 897 929 966 1006 1045 1086 1126 1175 1235 
 1293 1344 1391 1437 1463 1477 1489 1485 1466 1405 1308 1187 1086 950 784 617 
 456 315 233 204 186 176 169 174 199 218 231 237 232 216 196 175 150 131 114 
 96 76 62 52 0 0 0 0 0 0 0 0 0 0 0 0 0 0 0 0 
617 619 642 679 719 761 802 842 879 914 947 985 1026 1064 1103 1146 1192 1247 
 1306 1355 1412 1473 1521 1563 1584 1591 1580 1520 1414 1286 1167 1006 812 621 
 440 286 199 172 161 159 162 180 213 240 256 262 255 236 213 187 152 128 112 
 92 77 64 52 0 0 0 0 0 0 0 0 0 0 0 0 0 0 0 0 
617 618 642 678 718 760 802 842 880 916 950 989 1029 1067 1105 1146 1191 1241 
 1296 1343 1394 1449 1502 1543 1570 1585 1581 1532 1425 1286 1163 996 804 618 
 434 277 191 164 154 154 158 174 207 235 252 258 252 234 212 186 154 129 111 
 91 77 64 51 0 0 0 0 0 0 0 0 0 0 0 0 0 0 0 0 
617 619 644 680 717 759 801 843 881 920 959 999 1039 1076 1109 1139 1172 1204 
 1241 1276 1318 1364 1419 1461 1496 1524 1531 1489 1395 1268 1151 996 812 614 
 421 258 170 147 143 141 139 145 171 198 217 225 223 208 189 168 144 123 104 
 87 75 62 50 0 0 0 0 0 0 0 0 0 0 0 0 0 0 0 0 
617 620 645 680 717 756 796 836 875 912 951 986 1022 1055 1081 1097 1111 1124 
 1144 1172 1201 1242 1295 1336 1378 1411 1434 1407 1332 1204 1084 927 747 563 
 378 229 151 136 130 126 116 115 136 162 181 191 190 177 161 144 127 110 95 82 
 70 58 47 0 0 0 0 0 0 0 0 0 0 0 0 0 0 0 0 
617 620 646 681 718 757 798 837 874 911 948 980 1013 1042 1062 1075 1085 1092 
 1109 1139 1169 1211 1264 1306 1352 1391 1413 1390 1308 1182 1062 905 734 554 
 369 221 145 129 127 122 110 106 126 148 164 173 172 161 147 132 118 103 90 78 
 67 56 46 0 0 0 0 0 0 0 0 0 0 0 0 0 0 0 0 
617 620 646 682 721 762 803 843 883 923 963 1000 1038 1072 1099 1118 1135 1150 
 1173 1208 1244 1297 1354 1396 1445 1481 1491 1448 1352 1220 1090 925 742 556 
 368 224 147 129 127 123 114 114 139 164 184 192 190 176 160 143 127 108 93 80 
 68 56 45 0 0 0 0 0 0 0 0 0 0 0 0 0 0 0 0 
617 621 648 685 727 769 811 851 890 930 967 1006 1046 1084 1118 1152 1186 1224 
 1268 1317 1369 1430 1506 1568 1627 1661 1659 1588 1462 1318 1173 987 794 594 
 401 249 169 144 135 135 138 149 182 212 231 237 231 214 193 171 144 120 100 
 84 72 59 47 0 0 0 0 0 0 0 0 0 0 0 0 0 0 0 0 
617 622 649 687 728 770 811 851 888 925 960 999 1038 1079 1121 1167 1217 1273 
 1337 1392 1453 1517 1579 1630 1665 1686 1677 1599 1473 1335 1198 1009 812 612 
 415 266 181 154 143 148 155 176 212 243 259 265 256 236 212 184 148 124 105 
 86 72 58 47 0 0 0 0 0 0 0 0 0 0 0 0 0 0 0 0 
617 622 650 688 728 770 810 849 885 921 955 993 1032 1072 1114 1162 1213 1273 
 1341 1399 1462 1527 1583 1630 1664 1682 1670 1590 1461 1319 1169 979 792 597 
 412 269 185 161 151 154 161 180 214 245 260 264 255 235 211 183 147 124 106 
 86 72 58 47 0 0 0 0 0 0 0 0 0 0 0 0 0 0 0 0 
617 623 652 690 730 770 808 844 880 915 950 990 1030 1070 1117 1168 1227 1298 
 1369 1430 1493 1550 1594 1616 1630 1630 1592 1503 1368 1225 1092 913 741 568 
 408 282 208 184 172 170 168 177 204 228 243 246 238 221 200 173 141 122 107 
 88 71 57 48 0 0 0 0 0 0 0 0 0 0 0 0 0 0 0 0 
617 623 652 689 727 767 805 842 876 910 948 992 1037 1082 1122 1167 1223 1290 
 1352 1398 1441 1468 1491 1494 1491 1472 1426 1343 1220 1099 998 857 710 562 
 418 306 244 220 205 196 180 176 188 200 207 209 201 187 172 156 141 123 105 
 86 67 53 45 0 0 0 0 0 0 0 0 0 0 0 0 0 0 0 0 
617 624 652 689 724 762 799 833 866 900 937 978 1020 1060 1103 1151 1208 1271 
 1327 1366 1403 1442 1458 1469 1466 1437 1376 1287 1169 1052 950 837 714 568 
 438 330 282 256 236 221 204 206 211 212 215 219 214 201 186 165 138 117 98 79 
 61 49 39 0 0 0 0 0 0 0 0 0 0 0 0 0 0 0 0 
617 624 653 691 726 763 802 839 876 911 947 986 1018 1043 1070 1098 1130 1167 
 1206 1227 1246 1269 1270 1275 1254 1204 1122 1013 888 763 664 589 517 429 356 
 311 287 269 248 225 204 197 200 203 206 208 204 192 177 153 125 108 90 72 59 
 47 37 0 0 0 0 0 0 0 0 0 0 0 0 0 0 0 0 
617 625 654 692 729 765 802 841 880 918 951 978 991 996 991 987 978 975 975 
 975 983 1001 1023 1016 987 939 864 779 678 583 515 455 387 315 260 226 208 
 197 184 167 153 149 157 166 172 177 181 174 160 139 116 95 78 64 53 41 32 0 0 
 0 0 0 0 0 0 0 0 0 0 0 0 0 0 
617 624 654 693 729 765 800 838 877 914 944 957 952 937 909 877 844 809 784 
 775 777 795 812 804 778 724 651 584 524 463 422 375 318 246 184 143 126 116 
 111 106 95 85 93 103 112 118 131 129 115 102 87 72 62 53 44 36 28 0 0 0 0 0 0 
 0 0 0 0 0 0 0 0 0 0 
617 624 654 693 730 764 799 837 874 909 937 947 940 921 892 857 818 777 747 
 736 744 771 788 777 751 695 621 568 517 469 424 375 310 232 158 108 85 79 80 
 81 75 67 75 90 99 105 119 118 105 93 83 70 62 53 45 37 29 0 0 0 0 0 0 0 0 0 0 
 0 0 0 0 0 0 
617 624 654 694 731 767 803 842 880 916 946 959 955 939 913 881 845 806 775 
 760 762 778 788 772 744 694 622 568 522 465 420 372 309 229 153 102 79 73 75 
 78 75 73 86 101 113 120 133 128 115 102 89 73 63 54 45 36 29 0 0 0 0 0 0 0 0 
 0 0 0 0 0 0 0 0 
617 624 653 691 728 765 804 844 882 919 950 971 977 972 959 941 921 902 886 
 874 874 886 909 905 881 831 752 670 583 508 451 395 328 259 204 174 162 148 
 139 135 130 135 150 161 167 174 180 170 154 134 112 86 69 58 49 39 31 0 0 0 0 
 0 0 0 0 0 0 0 0 0 0 0 0 
617 624 651 688 723 761 800 837 873 909 941 971 993 1005 1015 1025 1034 1048 
 1062 1063 1064 1070 1081 1084 1071 1024 957 854 736 628 542 466 386 319 270 
 246 234 220 202 187 179 182 193 203 209 213 212 203 188 164 129 110 89 72 61 
 48 38 0 0 0 0 0 0 0 0 0 0 0 0 0 0 0 0 
617 623 650 685 720 758 796 831 865 900 933 972 1010 1041 1074 1108 1144 1185 
 1223 1246 1266 1283 1290 1285 1265 1226 1152 1052 940 830 741 651 545 437 354 
 300 284 269 243 223 201 197 204 212 218 222 219 208 191 167 141 123 104 84 68 
 54 44 0 0 0 0 0 0 0 0 0 0 0 0 0 0 0 0 
617 622 649 685 723 764 803 842 877 912 946 987 1029 1073 1119 1174 1235 1298 
 1348 1383 1418 1440 1452 1446 1422 1397 1344 1264 1157 1053 968 851 708 558 
 407 293 248 231 215 201 186 183 194 202 208 211 206 194 180 164 148 129 109 
 89 68 55 48 0 0 0 0 0 0 0 0 0 0 0 0 0 0 0 0 
617 622 648 686 726 767 806 844 880 914 947 986 1026 1069 1116 1165 1227 1299 
 1368 1421 1472 1517 1536 1544 1550 1539 1502 1423 1305 1177 1066 918 761 590 
 420 292 225 206 189 184 185 196 222 240 251 256 246 229 208 184 155 136 118 
 96 74 61 52 0 0 0 0 0 0 0 0 0 0 0 0 0 0 0 0 
617 622 648 687 727 768 809 849 886 922 957 995 1035 1075 1117 1164 1214 1271 
 1331 1381 1435 1493 1521 1554 1574 1592 1573 1486 1357 1221 1090 925 752 577 
 404 267 192 174 168 172 180 197 230 256 270 275 267 245 223 196 159 135 115 
 92 78 63 52 0 0 0 0 0 0 0 0 0 0 0 0 0 0 0 0 
617 621 646 684 725 766 808 851 891 932 971 1010 1049 1087 1120 1154 1189 1226 
 1269 1306 1343 1379 1423 1460 1499 1541 1550 1496 1383 1250 1130 973 793 598 
 403 249 164 151 151 154 155 163 191 219 237 245 238 222 201 178 151 127 107 
 91 77 64 51 0 0 0 0 0 0 0 0 0 0 0 0 0 0 0 0 
617 620 644 681 721 761 802 845 887 928 966 1003 1041 1073 1097 1116 1131 1149 
 1174 1199 1217 1249 1288 1330 1378 1412 1433 1400 1305 1181 1063 913 743 557 
 372 222 149 141 144 141 132 126 146 171 189 197 192 179 162 145 128 111 97 84 
 72 60 49 0 0 0 0 0 0 0 0 0 0 0 0 0 0 0 0 
617 620 644 681 719 760 800 841 880 919 956 990 1024 1052 1072 1085 1095 1107 
 1128 1154 1173 1213 1256 1297 1342 1378 1405 1379 1285 1167 1049 897 729 549 
 369 222 145 137 141 139 127 118 137 161 179 186 181 168 153 138 123 107 94 82 
 71 59 48 0 0 0 0 0 0 0 0 0 0 0 0 0 0 0 0 
