IESNA:LM-63-1995
[TEST]     18648
[MANUFAC]COOPER LIGHTING - SHAPER                             
[LUMCAT]650-CF2/13                                                                      
[LUMINAIRE]FLUORESCENT WALL MOUNT LUMINAIRE WITH WHITE INTERIOR AND WHITE FLAT PLASTIC LENS                                 
[LAMP]TWO SYLVANIA 13 WATT CPFL LAMPS                                                 
[LAMPCAT]CF13DS/E830. LUMEN RATING = 1600 LMS.                                           
[OTHER]ONE UNIVERSAL CT213UNVSE BALLAST OPERATING AT 120 VAC AND 28 WATTS              
TILT=NONE
1
      1600
1
73
17
1
1
  0.00
  0.00
  0.00
1
1
   28.0000
0 2.5 5 7.5 10 12.5 15 17.5 20 22.5 25 27.5 30 32.5 35 37.5
40 42.5 45 47.5 50 52.5 55 57.5 60 62.5 65 67.5 70 72.5 75
77.5 80 82.5 85 87.5 90 92.5 95 97.5 100 102.5 105 107.5 110
112.5 115 117.5 120 122.5 125 127.5 130 132.5 135 137.5 140
142.5 145 147.5 150 152.5 155 157.5 160 162.5 165 167.5 170
172.5 175 177.5 180
0 22.5 45 67.5 90 112.5 135 157.5 180 202.5 225 247.5
270 292.5 315 337.5 360
      82.7       82.7       82.4       82.3       81.9       81.3       80.6       79.9       79.2       78.3
      77.4       76.5       75.5       74.4       74.0       74.8       75.9       76.9       77.8       78.5
      79.2       79.4       79.4       79.1       78.7       78.1       77.3       76.3       75.1       73.8
      72.2       70.4       68.5       66.4       64.2       61.9       59.5       60.5       58.5       56.7
      55.2       54.1       53.7       53.4       53.5       53.7       54.1       54.7       55.2       55.5
      56.1       56.9       58.5       60.1       60.7       60.9       62.1       65.2       69.0       73.2
      77.9       81.7       85.4       89.1       92.9       97.0      100.7      104.1      106.4      109.0
     110.9      111.0      111.4
      82.7       82.8       82.8       83.5       84.2       85.0       86.3       87.2       88.4       89.6
      90.6       91.8       92.8       93.8       94.5       95.5       98.0      100.6      103.1      105.3
     107.5      109.3      110.6      111.6      112.4      113.0      113.4      113.4      113.2      112.8
     112.0      110.8      109.4      107.6      105.7      103.7      101.7       98.5       96.6       94.5
      93.0       91.6       90.8       90.8       92.3       95.2       99.5      104.3      108.7      113.6
     118.6      124.7      129.7      131.3      126.1      119.7      116.2      114.6      116.0      119.2
     121.8      123.6      124.9      125.3      124.7      123.7      120.8      116.8      114.8      114.4
     114.0      112.3      111.4
      82.7       82.8       84.2       86.8       90.2       93.6       97.3      100.9      104.5      107.9
     110.8      114.0      116.8      119.7      122.2      124.5      126.5      128.5      131.1      134.6
     138.2      141.4      144.4      146.6      148.8      150.3      152.1      153.3      154.3      154.7
     154.9      154.7      154.1      152.9      151.7      150.3      148.5      146.2      144.2      142.2
     139.8      137.6      135.3      132.7      130.1      128.1      126.7      125.8      125.5      126.3
     127.9      131.4      137.6      146.7      156.6      167.0      178.1      189.6      200.4      209.1
     215.0      214.6      209.6      202.3      193.8      182.9      171.6      158.7      144.4      131.4
     121.5      114.8      111.4
      82.7       83.2       85.6       90.0       95.2      100.3      105.7      110.8      115.8      120.4
     124.7      128.9      133.2      137.5      141.2      144.8      148.1      151.1      153.9      156.6
     159.2      161.6      163.8      165.6      167.8      170.4      173.0      175.1      176.9      178.3
     179.3      179.9      179.9      179.5      178.9      178.1      176.9      174.0      172.2      170.4
     168.2      165.8      163.2      160.1      156.9      153.9      152.1      150.9      149.7      148.8
     148.5      148.8      150.3      153.1      158.3      165.6      176.1      187.9      201.5      215.4
     229.3      241.0      249.5      249.1      238.7      225.2      209.9      190.6      169.0      144.4
     125.9      115.6      111.4
      82.7       83.2       86.7       91.6       97.3      103.3      109.1      114.8      120.1      125.5
     130.3      135.3      140.0      144.6      148.9      153.1      156.9      160.5      163.8      167.0
     170.0      172.7      175.1      177.1      178.7      179.9      181.1      182.1      182.6      182.6
     182.5      181.9      180.9      179.7      179.3      179.1      178.7      178.1      178.3      178.3
     177.9      177.3      176.3      174.9      173.0      170.9      169.4      167.2      165.2      163.1
     161.4      160.2      160.1      160.9      163.2      168.0      175.9      186.1      198.9      213.5
     229.3      243.6      255.1      261.1      253.7      237.7      219.8      198.3      173.0      145.3
     125.3      114.8      111.4
      82.7       83.2       85.6       90.0       95.2      100.3      105.7      110.8      115.8      120.4
     124.7      128.9      133.2      137.5      141.2      144.8      148.1      151.1      153.9      156.6
     159.2      161.6      163.8      165.6      167.8      170.4      173.0      175.1      176.9      178.3
     179.3      179.9      179.9      179.5      178.9      178.1      176.9      174.0      172.2      170.4
     168.2      165.8      163.2      160.1      156.9      153.9      152.1      150.9      149.7      148.8
     148.5      148.8      150.3      153.1      158.3      165.6      176.1      187.9      201.5      215.4
     229.3      241.0      249.5      249.1      238.7      225.2      209.9      190.6      169.0      144.4
     125.9      115.6      111.4
      82.7       82.8       84.2       86.8       90.2       93.6       97.3      100.9      104.5      107.9
     110.8      114.0      116.8      119.7      122.2      124.5      126.5      128.5      131.1      134.6
     138.2      141.4      144.4      146.6      148.8      150.3      152.1      153.3      154.3      154.7
     154.9      154.7      154.1      152.9      151.7      150.3      148.5      146.2      144.2      142.2
     139.8      137.6      135.3      132.7      130.1      128.1      126.7      125.8      125.5      126.3
     127.9      131.4      137.6      146.7      156.6      167.0      178.1      189.6      200.4      209.1
     215.0      214.6      209.6      202.3      193.8      182.9      171.6      158.7      144.4      131.4
     121.5      114.8      111.4
      82.7       82.8       82.8       83.5       84.2       85.0       86.3       87.2       88.4       89.6
      90.6       91.8       92.8       93.8       94.5       95.5       98.0      100.6      103.1      105.3
     107.5      109.3      110.6      111.6      112.4      113.0      113.4      113.4      113.2      112.8
     112.0      110.8      109.4      107.6      105.7      103.7      101.7       98.5       96.6       94.5
      93.0       91.6       90.8       90.8       92.3       95.2       99.5      104.3      108.7      113.6
     118.6      124.7      129.7      131.3      126.1      119.7      116.2      114.6      116.0      119.2
     121.8      123.6      124.9      125.3      124.7      123.7      120.8      116.8      114.8      114.4
     114.0      112.3      111.4
      82.7       82.7       82.4       82.3       81.9       81.3       80.6       79.9       79.2       78.3
      77.4       76.5       75.5       74.4       74.0       74.8       75.9       76.9       77.8       78.5
      79.2       79.4       79.4       79.1       78.7       78.1       77.3       76.3       75.1       73.8
      72.2       70.4       68.5       66.4       64.2       61.9       59.5       60.5       58.5       56.7
      55.2       54.1       53.7       53.4       53.5       53.7       54.1       54.7       55.2       55.5
      56.1       56.9       58.5       60.1       60.7       60.9       62.1       65.2       69.0       73.2
      77.9       81.7       85.4       89.1       92.9       97.0      100.7      104.1      106.4      109.0
     110.9      111.0      111.4
      82.7       82.4       82.3       81.9       81.3       80.9       80.1       79.5       78.7       77.9
      76.9       76.1       75.3       73.9       72.8       72.8       73.9       74.7       75.5       76.1
      76.7       76.9       76.5       75.7       74.7       73.9       72.9       71.8       70.6       68.9
      67.4       65.4       63.4       61.2       59.0       56.8       54.5       53.5       52.1       51.1
      51.1       51.7       52.1       52.5       52.5       52.1       51.5       50.5       49.9       49.1
      48.3       47.7       47.6       47.7       48.1       49.1       51.5       54.3       57.2       60.2
      63.6       66.7       70.3       74.5       79.7       85.4       91.0       97.3      103.9      109.1
     111.2      111.0      111.4
      82.7       82.4       82.0       81.7       81.3       80.6       79.9       79.1       78.1       77.1
      76.1       75.0       73.5       72.1       70.6       68.9       67.1       65.8       65.2       65.6
      66.0       65.8       65.4       64.8       63.8       63.0       61.8       60.6       59.3       57.9
      56.3       54.5       52.5       50.7       48.7       46.7       45.0       45.9       45.1       44.1
      43.6       43.2       42.8       42.8       43.2       43.7       44.7       45.9       47.3       49.3
      51.1       52.5       53.1       53.7       55.0       56.3       57.1       57.6       58.0       58.3
      59.3       60.0       60.6       61.5       62.8       65.2       68.9       75.9       85.4       97.5
     108.0      111.4      111.4
      82.7       82.7       82.4       82.0       81.5       80.9       80.1       79.1       77.9       76.7
      75.5       73.9       72.4       70.6       68.5       66.7       65.0       63.0       61.2       59.4
      57.2       55.0       52.7       50.9       49.9       50.3       50.5       48.7       46.5       44.7
      43.2       41.5       40.0       38.2       36.6       35.0       33.4       32.0       31.5       31.2
      30.9       30.7       30.7       31.1       31.6       32.4       33.7       35.2       37.8       41.2
      44.7       48.1       51.5       55.0       58.3       61.1       63.0       64.2       65.0       65.6
      65.6       65.0       63.8       63.0       63.0       63.4       64.4       67.1       72.9       84.2
      99.5      110.8      111.4
      82.7       82.7       82.7       82.4       82.3       81.5       80.5       79.5       78.3       76.7
      75.1       73.3       71.8       70.0       68.0       66.2       65.4       65.0       62.4       58.5
      55.3       53.1       50.5       48.3       45.9       44.6       42.6       40.4       37.8       35.2
      32.3       28.7       25.3       22.1       19.2       17.4       17.4       17.2       18.5       20.3
      22.7       24.7       26.7       28.7       30.5       32.0       33.8       35.9       38.0       40.4
      43.0       45.8       48.7       52.3       55.7       59.0       62.0       64.6       66.7       68.4
      69.3       69.2       68.2       66.2       64.8       64.4       64.8       66.2       69.8       77.5
      91.0      107.3      111.4
      82.7       82.7       82.4       82.0       81.5       80.9       80.1       79.1       77.9       76.7
      75.5       73.9       72.4       70.6       68.5       66.7       65.0       63.0       61.2       59.4
      57.2       55.0       52.7       50.9       49.9       50.3       50.5       48.7       46.5       44.7
      43.2       41.5       40.0       38.2       36.6       35.0       33.4       32.0       31.5       31.2
      30.9       30.7       30.7       31.1       31.6       32.4       33.7       35.2       37.8       41.2
      44.7       48.1       51.5       55.0       58.3       61.1       63.0       64.2       65.0       65.6
      65.6       65.0       63.8       63.0       63.0       63.4       64.4       67.1       72.9       84.2
      99.5      110.8      111.4
      82.7       82.4       82.0       81.7       81.3       80.6       79.9       79.1       78.1       77.1
      76.1       75.0       73.5       72.1       70.6       68.9       67.1       65.8       65.2       65.6
      66.0       65.8       65.4       64.8       63.8       63.0       61.8       60.6       59.3       57.9
      56.3       54.5       52.5       50.7       48.7       46.7       45.0       45.9       45.1       44.1
      43.6       43.2       42.8       42.8       43.2       43.7       44.7       45.9       47.3       49.3
      51.1       52.5       53.1       53.7       55.0       56.3       57.1       57.6       58.0       58.3
      59.3       60.0       60.6       61.5       62.8       65.2       68.9       75.9       85.4       97.5
     108.0      111.4      111.4
      82.7       82.4       82.3       81.9       81.3       80.9       80.1       79.5       78.7       77.9
      76.9       76.1       75.3       73.9       72.8       72.8       73.9       74.7       75.5       76.1
      76.7       76.9       76.5       75.7       74.7       73.9       72.9       71.8       70.6       68.9
      67.4       65.4       63.4       61.2       59.0       56.8       54.5       53.5       52.1       51.1
      51.1       51.7       52.1       52.5       52.5       52.1       51.5       50.5       49.9       49.1
      48.3       47.7       47.6       47.7       48.1       49.1       51.5       54.3       57.2       60.2
      63.6       66.7       70.3       74.5       79.7       85.4       91.0       97.3      103.9      109.1
     111.2      111.0      111.4
      82.7       82.7       82.4       82.3       81.9       81.3       80.6       79.9       79.2       78.3
      77.4       76.5       75.5       74.4       74.0       74.8       75.9       76.9       77.8       78.5
      79.2       79.4       79.4       79.1       78.7       78.1       77.3       76.3       75.1       73.8
      72.2       70.4       68.5       66.4       64.2       61.9       59.5       60.5       58.5       56.7
      55.2       54.1       53.7       53.4       53.5       53.7       54.1       54.7       55.2       55.5
      56.1       56.9       58.5       60.1       60.7       60.9       62.1       65.2       69.0       73.2
      77.9       81.7       85.4       89.1       92.9       97.0      100.7      104.1      106.4      109.0
     110.9      111.0      111.4
