IESNA:LM-63-1995
[TEST]    18648A
[MANUFAC]COOPER LIGHTING - SHAPER                             
[LUMCAT]650-CF2/26                                                                      
[LUMINAIRE]FLUORESCENT WALL MOUNT LUMINAIRE WITH WHITE INTERIOR AND WHITE FLAT PLASTIC LENS                                 
[LAMP]TWO 26 WATT CPFL LAMPS. LUMEN RATING = 3600 LMS.                                
[OTHER]SIMULATED REPORT CREATED FROM TEST OF 13 WATT LAMPS                             
TILT=NONE
1
      3600
1
73
17
1
1
  0.00
  0.00
  0.00
1
1
    0.0000
0 2.5 5 7.5 10 12.5 15 17.5 20 22.5 25 27.5 30 32.5 35 37.5
40 42.5 45 47.5 50 52.5 55 57.5 60 62.5 65 67.5 70 72.5 75
77.5 80 82.5 85 87.5 90 92.5 95 97.5 100 102.5 105 107.5 110
112.5 115 117.5 120 122.5 125 127.5 130 132.5 135 137.5 140
142.5 145 147.5 150 152.5 155 157.5 160 162.5 165 167.5 170
172.5 175 177.5 180
0 22.5 45 67.5 90 112.5 135 157.5 180 202.5 225 247.5
270 292.5 315 337.5 360
     185.5      185.4      184.8      184.5      183.6      182.3      180.8      179.2      177.5      175.6
     173.5      171.5      169.3      166.8      165.9      167.7      170.2      172.4      174.4      176.0
     177.6      178.1      178.0      177.3      176.4      175.2      173.3      171.0      168.4      165.5
     161.9      157.7      153.4      148.7      143.8      138.7      133.3      135.6      130.9      126.9
     123.5      121.0      120.2      119.5      119.7      120.2      121.1      122.4      123.5      124.2
     125.6      127.3      130.9      134.6      136.0      136.3      139.1      146.1      154.6      164.1
     174.6      183.2      191.4      199.8      208.3      217.7      226.0      233.6      238.7      244.6
     248.9      249.1      250.0
     185.5      185.8      185.8      187.2      188.9      190.7      193.4      195.6      198.4      200.9
     203.1      205.9      208.1      210.4      212.1      214.3      219.8      225.6      231.3      236.2
     241.2      245.2      248.3      250.5      252.3      253.6      254.5      254.5      254.2      253.2
     251.4      248.7      245.6      241.5      237.1      232.8      228.2      221.1      216.7      212.1
     208.6      205.5      203.7      203.7      207.2      213.6      223.2      234.0      243.9      255.1
     266.2      279.9      291.1      294.8      283.0      268.8      260.7      257.3      260.4      267.5
     273.4      277.4      280.5      281.4      279.9      277.7      271.2      262.2      257.6      256.7
     256.0      252.0      250.0
     185.5      185.8      188.9      194.7      202.4      209.9      218.3      226.4      234.4      242.1
     248.7      256.0      262.2      268.8      274.3      279.6      284.0      288.5      294.4      302.3
     310.3      317.4      324.2      329.1      334.1      337.5      341.6      344.3      346.5      347.4
     347.8      347.4      346.1      343.4      340.7      337.5      333.5      328.2      323.8      319.3
     314.0      309.0      303.7      297.9      292.0      287.6      284.5      282.3      281.8      283.6
     287.1      295.1      309.0      329.5      351.8      375.0      400.1      426.1      450.2      469.8
     483.1      482.2      471.1      454.6      435.4      410.9      385.5      356.4      324.2      295.1
     272.8      257.6      250.0
     185.5      186.7      192.0      201.9      213.6      225.1      237.1      248.7      260.0      270.2
     279.9      289.5      299.1      308.7      317.1      325.1      332.6      339.4      345.6      351.8
     357.7      363.0      367.9      371.9      376.9      382.7      388.6      393.3      397.3      400.6
     402.8      404.1      404.1      403.2      401.9      400.1      397.3      390.8      386.7      382.7
     377.8      372.5      366.6      359.5      352.4      345.6      341.6      339.0      336.3      334.1
     333.5      334.1      337.5      343.8      355.5      371.9      395.7      422.0      452.8      484.0
     515.3      541.6      560.8      559.9      536.3      506.0      471.6      428.3      379.6      324.2
     282.7      259.5      250.0
     185.5      186.7      194.4      205.5      218.3      231.8      244.8      257.6      269.7      281.8
     292.6      303.7      314.3      324.7      334.4      343.8      352.4      360.4      367.9      375.0
     381.8      388.0      393.3      397.9      401.4      404.1      406.9      409.1      410.3      410.3
     410.0      408.7      406.3      403.8      402.8      402.3      401.4      400.1      400.6      400.6
     399.7      398.3      396.1      393.0      388.6      384.0      380.5      375.6      371.0      366.3
     362.6      359.9      359.5      361.3      366.6      377.4      395.2      418.0      446.9      479.6
     515.3      547.5      573.3      586.8      570.2      534.1      493.9      445.6      388.6      326.4
     281.4      257.6      250.0
     185.5      186.7      192.0      201.9      213.6      225.1      237.1      248.7      260.0      270.2
     279.9      289.5      299.1      308.7      317.1      325.1      332.6      339.4      345.6      351.8
     357.7      363.0      367.9      371.9      376.9      382.7      388.6      393.3      397.3      400.6
     402.8      404.1      404.1      403.2      401.9      400.1      397.3      390.8      386.7      382.7
     377.8      372.5      366.6      359.5      352.4      345.6      341.6      339.0      336.3      334.1
     333.5      334.1      337.5      343.8      355.5      371.9      395.7      422.0      452.8      484.0
     515.3      541.6      560.8      559.9      536.3      506.0      471.6      428.3      379.6      324.2
     282.7      259.5      250.0
     185.5      185.8      188.9      194.7      202.4      209.9      218.3      226.4      234.4      242.1
     248.7      256.0      262.2      268.8      274.3      279.6      284.0      288.5      294.4      302.3
     310.3      317.4      324.2      329.1      334.1      337.5      341.6      344.3      346.5      347.4
     347.8      347.4      346.1      343.4      340.7      337.5      333.5      328.2      323.8      319.3
     314.0      309.0      303.7      297.9      292.0      287.6      284.5      282.3      281.8      283.6
     287.1      295.1      309.0      329.5      351.8      375.0      400.1      426.1      450.2      469.8
     483.1      482.2      471.1      454.6      435.4      410.9      385.5      356.4      324.2      295.1
     272.8      257.6      250.0
     185.5      185.8      185.8      187.2      188.9      190.7      193.4      195.6      198.4      200.9
     203.1      205.9      208.1      210.4      212.1      214.3      219.8      225.6      231.3      236.2
     241.2      245.2      248.3      250.5      252.3      253.6      254.5      254.5      254.2      253.2
     251.4      248.7      245.6      241.5      237.1      232.8      228.2      221.1      216.7      212.1
     208.6      205.5      203.7      203.7      207.2      213.6      223.2      234.0      243.9      255.1
     266.2      279.9      291.1      294.8      283.0      268.8      260.7      257.3      260.4      267.5
     273.4      277.4      280.5      281.4      279.9      277.7      271.2      262.2      257.6      256.7
     256.0      252.0      250.0
     185.5      185.4      184.8      184.5      183.6      182.3      180.8      179.2      177.5      175.6
     173.5      171.5      169.3      166.8      165.9      167.7      170.2      172.4      174.4      176.0
     177.6      178.1      178.0      177.3      176.4      175.2      173.3      171.0      168.4      165.5
     161.9      157.7      153.4      148.7      143.8      138.7      133.3      135.6      130.9      126.9
     123.5      121.0      120.2      119.5      119.7      120.2      121.1      122.4      123.5      124.2
     125.6      127.3      130.9      134.6      136.0      136.3      139.1      146.1      154.6      164.1
     174.6      183.2      191.4      199.8      208.3      217.7      226.0      233.6      238.7      244.6
     248.9      249.1      250.0
     185.5      184.8      184.5      183.6      182.3      181.4      179.5      178.3      176.4      174.6
     172.4      170.6      168.7      165.6      163.1      163.1      165.6      167.5      169.3      170.6
     172.0      172.4      171.5      169.7      167.5      165.6      163.4      160.9      158.1      154.5
     151.0      146.4      142.0      137.1      132.2      127.2      121.9      119.7      116.6      114.4
     114.4      115.7      116.6      117.5      117.5      116.6      115.3      113.0      111.7      109.9
     108.0      106.8      106.4      106.8      107.7      109.9      115.3      121.6      128.2      134.9
     142.4      149.5      157.6      167.1      178.6      191.6      204.0      218.3      233.1      244.8
     249.6      249.2      250.0
     185.5      184.8      183.9      183.2      182.3      180.8      179.2      177.3      175.2      172.8
     170.6      168.0      164.7      161.6      158.1      154.5      150.5      147.4      146.1      147.0
     147.9      147.4      146.4      145.2      143.0      141.1      138.4      135.8      132.7      129.6
     126.0      121.9      117.5      113.5      108.9      104.6      100.5      102.7      100.9       98.7
      97.4       96.5       95.6       95.6       96.5       97.8      100.0      102.7      105.8      110.4
     114.4      117.5      118.8      120.1      123.2      126.0      127.8      129.1      130.0      130.5
     132.7      134.4      135.8      137.7      140.8      146.1      154.5      170.2      191.6      218.9
     242.5      250.1      250.0
     185.5      185.4      184.8      183.9      182.6      181.4      179.5      177.3      174.6      172.0
     169.3      165.6      162.2      158.1      153.6      149.5      145.7      141.1      137.1      133.1
     128.2      123.2      117.9      113.9      111.7      112.6      113.0      108.9      104.0      100.0
      96.5       92.9       89.4       85.4       81.7       78.2       74.6       71.5       70.2       69.6
      68.9       68.3       68.3       69.3       70.5       72.4       75.1       78.6       84.4       92.1
     100.0      107.7      115.3      123.2      130.5      136.7      141.1      143.9      145.7      147.0
     147.0      145.7      143.0      141.1      141.1      142.0      144.2      150.5      163.4      188.9
     223.2      248.7      250.0
     185.5      185.4      185.4      184.8      184.5      182.6      180.5      178.3      175.5      172.0
     168.4      164.4      160.9      156.9      152.3      148.3      146.4      145.7      139.9      130.9
     123.8      118.8      113.0      108.0      102.7       99.6       95.2       90.3       84.4       78.6
      72.0       64.0       56.3       49.1       42.6       38.5       38.5       38.0       41.1       45.1
      50.4       55.0       59.4       64.0       68.0       71.5       75.5       80.1       84.8       90.3
      96.1      102.4      108.9      117.0      124.7      132.2      138.9      144.8      149.5      153.2
     155.4      155.0      152.8      148.3      145.2      144.2      145.2      148.3      156.3      173.7
     204.0      240.8      250.0
     185.5      185.4      184.8      183.9      182.6      181.4      179.5      177.3      174.6      172.0
     169.3      165.6      162.2      158.1      153.6      149.5      145.7      141.1      137.1      133.1
     128.2      123.2      117.9      113.9      111.7      112.6      113.0      108.9      104.0      100.0
      96.5       92.9       89.4       85.4       81.7       78.2       74.6       71.5       70.2       69.6
      68.9       68.3       68.3       69.3       70.5       72.4       75.1       78.6       84.4       92.1
     100.0      107.7      115.3      123.2      130.5      136.7      141.1      143.9      145.7      147.0
     147.0      145.7      143.0      141.1      141.1      142.0      144.2      150.5      163.4      188.9
     223.2      248.7      250.0
     185.5      184.8      183.9      183.2      182.3      180.8      179.2      177.3      175.2      172.8
     170.6      168.0      164.7      161.6      158.1      154.5      150.5      147.4      146.1      147.0
     147.9      147.4      146.4      145.2      143.0      141.1      138.4      135.8      132.7      129.6
     126.0      121.9      117.5      113.5      108.9      104.6      100.5      102.7      100.9       98.7
      97.4       96.5       95.6       95.6       96.5       97.8      100.0      102.7      105.8      110.4
     114.4      117.5      118.8      120.1      123.2      126.0      127.8      129.1      130.0      130.5
     132.7      134.4      135.8      137.7      140.8      146.1      154.5      170.2      191.6      218.9
     242.5      250.1      250.0
     185.5      184.8      184.5      183.6      182.3      181.4      179.5      178.3      176.4      174.6
     172.4      170.6      168.7      165.6      163.1      163.1      165.6      167.5      169.3      170.6
     172.0      172.4      171.5      169.7      167.5      165.6      163.4      160.9      158.1      154.5
     151.0      146.4      142.0      137.1      132.2      127.2      121.9      119.7      116.6      114.4
     114.4      115.7      116.6      117.5      117.5      116.6      115.3      113.0      111.7      109.9
     108.0      106.8      106.4      106.8      107.7      109.9      115.3      121.6      128.2      134.9
     142.4      149.5      157.6      167.1      178.6      191.6      204.0      218.3      233.1      244.8
     249.6      249.2      250.0
     185.5      185.4      184.8      184.5      183.6      182.3      180.8      179.2      177.5      175.6
     173.5      171.5      169.3      166.8      165.9      167.7      170.2      172.4      174.4      176.0
     177.6      178.1      178.0      177.3      176.4      175.2      173.3      171.0      168.4      165.5
     161.9      157.7      153.4      148.7      143.8      138.7      133.3      135.6      130.9      126.9
     123.5      121.0      120.2      119.5      119.7      120.2      121.1      122.4      123.5      124.2
     125.6      127.3      130.9      134.6      136.0      136.3      139.1      146.1      154.6      164.1
     174.6      183.2      191.4      199.8      208.3      217.7      226.0      233.6      238.7      244.6
     248.9      249.1      250.0
