IESNA:LM-63-1995
[TEST]    18645A
[MANUFAC]COOPER LIGHTING - SHAPER                             
[LUMCAT]626-CF1/26                                                                      
[LUMINAIRE]FLUORESCENT WALL MOUNT LUMINAIRE WITH WHITE INTERIOR AND FLAT WHITE PLASTIC LENS                                 
[LAMP]ONE 26 WATT CPFL LAMP. LUMEN RATING = 1800 LMS.                                 
[OTHER]SIMULATED REPORT CREATED FROM TEST OF 13 WATT LAMP                              
TILT=NONE
1
      1800
1
73
17
1
1
  0.08
  0.67
  0.21
1
1
    0.0000
0 2.5 5 7.5 10 12.5 15 17.5 20 22.5 25 27.5 30 32.5 35 37.5
40 42.5 45 47.5 50 52.5 55 57.5 60 62.5 65 67.5 70 72.5 75
77.5 80 82.5 85 87.5 90 92.5 95 97.5 100 102.5 105 107.5 110
112.5 115 117.5 120 122.5 125 127.5 130 132.5 135 137.5 140
142.5 145 147.5 150 152.5 155 157.5 160 162.5 165 167.5 170
172.5 175 177.5 180
0 22.5 45 67.5 90 112.5 135 157.5 180 202.5 225 247.5
270 292.5 315 337.5 360
       8.5        8.9        8.8        8.8        8.6        8.5        8.3        8.2        8.1        8.0
       7.8        7.8        7.6        7.5        7.4        7.4        7.3        7.3        7.2        7.1
       6.9        6.7        6.5        6.2        6.0        5.8        5.5        5.1        4.8        4.5
       4.3        3.9        3.7        3.4        3.1        2.7        2.7        5.4        9.0       14.8
      22.2       29.8       38.8       48.4       57.9       66.8       75.9       84.9       93.1      101.5
     109.3      117.3      124.8      132.4      139.6      146.4      152.9      158.7      164.6      170.0
     175.4      180.1      184.7      188.8      192.3      195.6      198.3      200.5      202.4      203.8
     204.8      205.5      205.3
       8.5        8.9        9.2        9.9       10.8       12.0       13.1       14.2       15.3       16.5
      17.6       18.7       19.9       20.9       21.9       23.1       24.2       25.3       26.3       27.1
      27.9       28.5       29.1       29.6       30.1       30.4       30.8       31.0       31.2       31.2
      31.3       31.2       31.0       30.9       30.6       30.4       30.1       37.5       44.5       59.5
      86.3      114.0      145.1      169.1      181.6      190.2      196.6      201.0      204.5      207.4
     209.8      211.9      214.1      216.6      219.0      221.3      222.9      224.4      225.8      227.3
     228.7      229.8      230.6      230.6      230.0      228.6      226.4      223.4      220.1      216.3
     212.8      209.3      205.3
       8.5        8.8       10.3       12.7       15.2       17.8       20.7       23.6       26.9       30.1
      33.0       35.8       38.5       41.4       44.0       46.4       48.7       51.2       53.5       55.6
      57.8       59.6       61.5       62.9       64.3       65.5       66.8       67.8       68.6       69.3
      69.9       70.3       70.4       70.4       70.3       70.3       69.9       74.6       83.5       94.7
     111.0      132.1      160.9      190.2      221.1      252.1      283.4      309.5      323.8      328.9
     330.6      330.3      328.8      326.4      323.6      319.7      314.8      308.9      302.0      295.6
     289.3      283.4      277.2      271.1      265.1      258.5      252.0      245.8      239.8      231.1
     221.9      212.8      205.3
       8.5        8.8       11.4       14.5       18.3       22.4       26.7       31.3       35.8       40.0
      44.1       48.2       52.2       56.1       60.0       63.7       67.3       70.8       74.3       77.6
      80.8       83.6       86.4       88.6       90.8       92.9       94.7       96.2       97.5       98.6
      99.3       99.7      100.0      100.0       99.7       99.6       99.0       99.1      107.2      117.5
     131.1      148.0      170.2      196.5      227.3      256.8      286.9      319.1      351.1      379.0
     395.7      401.8      401.0      397.9      393.3      387.3      379.0      369.6      358.9      348.3
     336.2      323.5      312.8      301.6      290.9      279.7      269.3      258.4      249.0      239.2
     227.0      214.8      205.3
       8.5        8.6       11.6       15.2       19.6       24.2       29.4       34.4       39.3       44.0
      48.6       53.3       58.0       62.6       66.9       71.3       75.3       79.4       83.4       87.3
      90.9       94.4       97.7      100.4      102.9      105.3      107.4      109.1      110.4      111.1
     111.1      110.5      109.7      108.6      107.7      106.9      106.2      104.4      113.4      124.7
     138.8      155.5      177.4      203.2      233.2      263.8      293.3      324.6      356.0      388.8
     411.9      424.8      426.8      423.4      418.3      411.3      402.0      391.3      379.0      366.2
     352.6      338.8      324.6      311.4      298.7      285.5      273.6      261.2      250.3      239.4
     226.0      213.4      205.3
       8.5        8.8       11.4       14.5       18.3       22.4       26.7       31.3       35.8       40.0
      44.1       48.2       52.2       56.1       60.0       63.7       67.3       70.8       74.3       77.6
      80.8       83.6       86.4       88.6       90.8       92.9       94.7       96.2       97.5       98.6
      99.3       99.7      100.0      100.0       99.7       99.6       99.0       99.1      107.2      117.5
     131.1      148.0      170.2      196.5      227.3      256.8      286.9      319.1      351.1      379.0
     395.7      401.8      401.0      397.9      393.3      387.3      379.0      369.6      358.9      348.3
     336.2      323.5      312.8      301.6      290.9      279.7      269.3      258.4      249.0      239.2
     227.0      214.8      205.3
       8.5        8.8       10.3       12.7       15.2       17.8       20.7       23.6       26.9       30.1
      33.0       35.8       38.5       41.4       44.0       46.4       48.7       51.2       53.5       55.6
      57.8       59.6       61.5       62.9       64.3       65.5       66.8       67.8       68.6       69.3
      69.9       70.3       70.4       70.4       70.3       70.3       69.9       74.6       83.5       94.7
     111.0      132.1      160.9      190.2      221.1      252.1      283.4      309.5      323.8      328.9
     330.6      330.3      328.8      326.4      323.6      319.7      314.8      308.9      302.0      295.6
     289.3      283.4      277.2      271.1      265.1      258.5      252.0      245.8      239.8      231.1
     221.9      212.8      205.3
       8.5        8.9        9.2        9.9       10.8       12.0       13.1       14.2       15.3       16.5
      17.6       18.7       19.9       20.9       21.9       23.1       24.2       25.3       26.3       27.1
      27.9       28.5       29.1       29.6       30.1       30.4       30.8       31.0       31.2       31.2
      31.3       31.2       31.0       30.9       30.6       30.4       30.1       37.5       44.5       59.5
      86.3      114.0      145.1      169.1      181.6      190.2      196.6      201.0      204.5      207.4
     209.8      211.9      214.1      216.6      219.0      221.3      222.9      224.4      225.8      227.3
     228.7      229.8      230.6      230.6      230.0      228.6      226.4      223.4      220.1      216.3
     212.8      209.3      205.3
       8.5        8.9        8.8        8.8        8.6        8.5        8.3        8.2        8.1        8.0
       7.8        7.8        7.6        7.5        7.4        7.4        7.3        7.3        7.2        7.1
       6.9        6.7        6.5        6.2        6.0        5.8        5.5        5.1        4.8        4.5
       4.3        3.9        3.7        3.4        3.1        2.7        2.7        5.4        9.0       14.8
      22.2       29.8       38.8       48.4       57.9       66.8       75.9       84.9       93.1      101.5
     109.3      117.3      124.8      132.4      139.6      146.4      152.9      158.7      164.6      170.0
     175.4      180.1      184.7      188.8      192.3      195.6      198.3      200.5      202.4      203.8
     204.8      205.5      205.3
       8.5        8.6        8.5        8.3        8.2        7.9        7.9        7.8        7.8        7.8
       7.8        7.8        7.9        7.9        7.8        7.8        7.5        7.2        6.8        6.2
       5.8        5.6        5.3        5.0        4.7        4.4        4.1        4.0        3.8        3.7
       3.4        3.3        3.1        2.9        2.7        2.6        3.1        7.9       20.0       36.4
      57.7       79.1       97.7      108.4      116.7      123.6      129.9      137.8      146.4      154.3
     159.9      165.2      169.9      174.6      178.5      181.9      185.0      187.6      190.2      192.3
     193.9      195.2      196.3      197.3      198.3      199.4      199.8      199.3      198.5      198.7
     200.4      202.9      205.3
       8.5        8.3        8.1        7.9        7.9        7.8        8.1        8.3        8.6        9.1
       9.3        9.5        9.3        9.3        9.2        9.5        9.2        9.1        8.6        8.2
       7.8        7.5        7.2        7.0        6.8        6.5        6.4        6.2        6.1        6.0
       5.8        5.8        5.7        5.4        5.3        5.0        5.8       11.7       19.1       30.2
      45.5       64.0       86.1      107.9      131.8      156.4      182.8      205.7      220.7      228.4
     230.6      231.5      231.9      231.9      232.8      234.9      236.3      236.7      235.4      234.3
     232.8      230.8      228.2      225.2      222.0      218.2      213.7      208.9      205.8      203.2
     199.7      200.6      205.3
       8.5        8.2        8.1        8.1        8.2        8.5        8.8        9.2        9.6       10.0
      10.1       10.5       10.7       10.8       10.7       10.7       10.7       10.5       10.4       10.4
      10.3       10.1       10.0        9.9        9.7        9.6        9.3        9.1        8.6        8.3
       7.9        7.5        7.2        6.9        6.4        5.8        6.2       12.3       18.9       26.6
      38.3       51.9       68.9       88.8      112.1      134.1      156.9      182.6      209.5      237.9
     261.2      277.1      284.1      284.4      281.4      277.1      271.9      266.7      265.1      263.3
     260.5      255.2      250.3      245.4      239.7      233.5      227.1      220.6      213.4      207.7
     203.8      200.3      205.3
       8.5        8.1        8.2        8.5        8.8        9.2        9.6       10.0       10.3       10.5
      10.8       11.1       11.3       11.4       11.6       11.6       11.7       11.7       11.7       11.8
      11.8       12.1       12.3       12.3       12.4       12.4       12.4       12.1       11.7       10.8
       9.2        7.0        5.3        3.3        1.5        0.5        1.2        8.5       15.3       23.5
      34.1       47.2       62.9       80.9      103.7      126.8      149.1      172.6      197.5      225.6
     253.8      279.4      295.7      304.0      303.7      299.1      292.9      286.2      278.9      275.5
     272.2      268.2      261.4      255.5      249.3      242.6      235.6      228.2      220.9      212.6
     207.7      202.3      205.3
       8.5        8.2        8.1        8.1        8.2        8.5        8.8        9.2        9.6       10.0
      10.1       10.5       10.7       10.8       10.7       10.7       10.7       10.5       10.4       10.4
      10.3       10.1       10.0        9.9        9.7        9.6        9.3        9.1        8.6        8.3
       7.9        7.5        7.2        6.9        6.4        5.8        6.2       12.3       18.9       26.6
      38.3       51.9       68.9       88.8      112.1      134.1      156.9      182.6      209.5      237.9
     261.2      277.1      284.1      284.4      281.4      277.1      271.9      266.7      265.1      263.3
     260.5      255.2      250.3      245.4      239.7      233.5      227.1      220.6      213.4      207.7
     203.8      200.3      205.3
       8.5        8.3        8.1        7.9        7.9        7.8        8.1        8.3        8.6        9.1
       9.3        9.5        9.3        9.3        9.2        9.5        9.2        9.1        8.6        8.2
       7.8        7.5        7.2        7.0        6.8        6.5        6.4        6.2        6.1        6.0
       5.8        5.8        5.7        5.4        5.3        5.0        5.8       11.7       19.1       30.2
      45.5       64.0       86.1      107.9      131.8      156.4      182.8      205.7      220.7      228.4
     230.6      231.5      231.9      231.9      232.8      234.9      236.3      236.7      235.4      234.3
     232.8      230.8      228.2      225.2      222.0      218.2      213.7      208.9      205.8      203.2
     199.7      200.6      205.3
       8.5        8.6        8.5        8.3        8.2        7.9        7.9        7.8        7.8        7.8
       7.8        7.8        7.9        7.9        7.8        7.8        7.5        7.2        6.8        6.2
       5.8        5.6        5.3        5.0        4.7        4.4        4.1        4.0        3.8        3.7
       3.4        3.3        3.1        2.9        2.7        2.6        3.1        7.9       20.0       36.4
      57.7       79.1       97.7      108.4      116.7      123.6      129.9      137.8      146.4      154.3
     159.9      165.2      169.9      174.6      178.5      181.9      185.0      187.6      190.2      192.3
     193.9      195.2      196.3      197.3      198.3      199.4      199.8      199.3      198.5      198.7
     200.4      202.9      205.3
       8.5        8.9        8.8        8.8        8.6        8.5        8.3        8.2        8.1        8.0
       7.8        7.8        7.6        7.5        7.4        7.4        7.3        7.3        7.2        7.1
       6.9        6.7        6.5        6.2        6.0        5.8        5.5        5.1        4.8        4.5
       4.3        3.9        3.7        3.4        3.1        2.7        2.7        5.4        9.0       14.8
      22.2       29.8       38.8       48.4       57.9       66.8       75.9       84.9       93.1      101.5
     109.3      117.3      124.8      132.4      139.6      146.4      152.9      158.7      164.6      170.0
     175.4      180.1      184.7      188.8      192.3      195.6      198.3      200.5      202.4      203.8
     204.8      205.5      205.3
