IESNA:LM-63-1995
[TEST]     19159
[MANUFAC]COOPER LIGHTING - SHAPER                                 
[LUMCAT]694-WP-12-CF1/26                                                                
[LUMINAIRE]EXTERIOR WALL MOUNT LUMINAIRE WHITE BACK AND STEEL BOWL INTERIOR WITH CLEAR FLAT PLASTIC LENS                 
[LAMP]ONE SYLVANIA 26 WATT CPFL LAMP                                                  
[LAMPCAT]CF26TE/IN/830. LUMEN RATING = 1800 LMS.                                         
[OTHER]ONE UNIVERSAL C2642UNVSE BALLAST OPERATING AT 120 VAC AND 24 WATTS              
TILT=NONE
1
      1800
1
73
17
1
1
  0.33
  0.75
  0.00
1
1
   24.0000
0 2.5 5 7.5 10 12.5 15 17.5 20 22.5 25 27.5 30 32.5 35 37.5
40 42.5 45 47.5 50 52.5 55 57.5 60 62.5 65 67.5 70 72.5 75
77.5 80 82.5 85 87.5 90 92.5 95 97.5 100 102.5 105 107.5 110
112.5 115 117.5 120 122.5 125 127.5 130 132.5 135 137.5 140
142.5 145 147.5 150 152.5 155 157.5 160 162.5 165 167.5 170
172.5 175 177.5 180
0 22.5 45 67.5 90 112.5 135 157.5 180 202.5 225 247.5
270 292.5 315 337.5 360
     170.5      170.2      169.9      169.0      167.6      165.7      164.0      161.0      158.1      155.1
     151.2      147.3      143.4      139.2      135.0      130.2      125.6      120.3      115.0      109.4
     103.4       97.0       90.1       83.4       76.3       69.0       60.4       50.8       40.5       30.9
      22.7       15.2        8.6        4.6        2.5        1.0        0.5        0.5        0.8        0.6
       0.7        0.6        0.8        0.7        0.9        0.7        0.7        0.7        0.6        0.9
       0.8        0.7        0.7        0.8        0.8        0.7        0.8        0.8        0.9        1.0
       0.7        0.6        0.9        1.1        0.9        0.9        1.0        1.0        1.1        1.1
       1.1        0.9        1.1
     170.5      170.3      171.1      171.9      172.6      172.5      172.6      172.4      172.1      171.7
     170.2      169.0      167.6      165.7      164.0      161.0      158.4      155.0      151.4      147.6
     143.7      139.1      132.4      124.9      114.4      103.2       91.6       77.9       60.4       43.5
      29.0       17.0        9.2        5.2        2.9        1.2        0.9        0.9        0.6        0.5
       0.8        0.8        0.9        1.0        0.5        0.7        0.5        1.0        1.0        0.5
       0.5        0.9        0.9        1.0        1.0        0.8        1.0        1.1        0.9        1.0
       1.0        0.6        1.1        1.1        1.1        0.7        1.0        1.1        1.1        0.7
       1.2        1.0        1.1
     170.5      171.4      172.9      173.7      174.7      176.2      176.8      177.8      178.5      179.1
     178.9      179.1      179.9      180.5      181.1      178.7      176.0      174.4      175.1      177.9
     180.9      180.4      174.1      164.5      150.5      131.5      108.1       87.4       68.8       50.7
      34.4       21.4       13.5        7.2        3.3        1.6        1.0        0.9        0.6        0.7
       0.9        0.7        1.1        1.0        0.7        0.6        0.7        1.0        0.8        1.1
       1.1        0.6        1.1        0.9        0.5        1.1        1.0        0.9        1.1        1.1
       0.6        0.7        1.0        1.0        1.0        1.2        1.2        1.2        1.2        1.2
       0.7        0.9        1.1
     170.5      172.0      172.5      173.9      175.6      177.0      178.5      179.5      180.5      182.4
     184.3      186.4      186.5      185.5      187.3      191.2      197.8      204.6      207.3      206.9
     204.7      198.7      185.8      167.9      146.4      126.3      107.9       90.8       72.0       52.0
      36.9       25.6       17.7       10.4        5.1        1.4        0.9        1.0        0.7        0.5
       0.9        0.9        0.8        1.0        0.8        0.9        0.8        1.0        1.1        1.0
       0.8        1.1        1.1        1.1        1.0        0.9        1.0        1.1        1.1        1.1
       0.9        0.7        1.1        1.1        1.1        1.2        1.2        0.7        0.7        1.2
       1.1        1.2        1.1
     170.5      169.3      169.6      170.3      171.6      172.4      174.0      175.1      176.1      177.1
     179.2      180.3      179.6      181.3      185.4      193.3      201.3      205.6      205.9      204.3
     200.1      192.1      176.1      157.7      137.2      121.2      105.6       89.2       68.4       50.3
      36.5       27.4       18.8       10.9        4.9        1.5        0.8        0.7        0.5        0.7
       0.7        0.5        0.8        0.8        0.9        0.9        0.9        0.5        0.7        0.8
       0.7        0.9        0.8        0.9        0.9        0.6        1.0        0.9        0.8        1.0
       0.7        0.6        0.9        0.9        0.6        1.1        0.8        1.1        1.1        1.1
       1.1        0.7        1.1
     170.5      172.0      172.5      173.9      175.6      177.0      178.5      179.5      180.5      182.4
     184.3      186.4      186.5      185.5      187.3      191.2      197.8      204.6      207.3      206.9
     204.7      198.7      185.8      167.9      146.4      126.3      107.9       90.8       72.0       52.0
      36.9       25.6       17.7       10.4        5.1        1.4        0.9        1.0        0.7        0.5
       0.9        0.9        0.8        1.0        0.8        0.9        0.8        1.0        1.1        1.0
       0.8        1.1        1.1        1.1        1.0        0.9        1.0        1.1        1.1        1.1
       0.9        0.7        1.1        1.1        1.1        1.2        1.2        0.7        0.7        1.2
       1.1        1.2        1.1
     170.5      171.4      172.9      173.7      174.7      176.2      176.8      177.8      178.5      179.1
     178.9      179.1      179.9      180.5      181.1      178.7      176.0      174.4      175.1      177.9
     180.9      180.4      174.1      164.5      150.5      131.5      108.1       87.4       68.8       50.7
      34.4       21.4       13.5        7.2        3.3        1.6        1.0        0.9        0.6        0.7
       0.9        0.7        1.1        1.0        0.7        0.6        0.7        1.0        0.8        1.1
       1.1        0.6        1.1        0.9        0.5        1.1        1.0        0.9        1.1        1.1
       0.6        0.7        1.0        1.0        1.0        1.2        1.2        1.2        1.2        1.2
       0.7        0.9        1.1
     170.5      170.3      171.1      171.9      172.6      172.5      172.6      172.4      172.1      171.7
     170.2      169.0      167.6      165.7      164.0      161.0      158.4      155.0      151.4      147.6
     143.7      139.1      132.4      124.9      114.4      103.2       91.6       77.9       60.4       43.5
      29.0       17.0        9.2        5.2        2.9        1.2        0.9        0.9        0.6        0.5
       0.8        0.8        0.9        1.0        0.5        0.7        0.5        1.0        1.0        0.5
       0.5        0.9        0.9        1.0        1.0        0.8        1.0        1.1        0.9        1.0
       1.0        0.6        1.1        1.1        1.1        0.7        1.0        1.1        1.1        0.7
       1.2        1.0        1.1
     170.5      170.2      169.9      169.0      167.6      165.7      164.0      161.0      158.1      155.1
     151.2      147.3      143.4      139.2      135.0      130.2      125.6      120.3      115.0      109.4
     103.4       97.0       90.1       83.4       76.3       69.0       60.4       50.8       40.5       30.9
      22.7       15.2        8.6        4.6        2.5        1.0        0.5        0.5        0.8        0.6
       0.7        0.6        0.8        0.7        0.9        0.7        0.7        0.7        0.6        0.9
       0.8        0.7        0.7        0.8        0.8        0.7        0.8        0.8        0.9        1.0
       0.7        0.6        0.9        1.1        0.9        0.9        1.0        1.0        1.1        1.1
       1.1        0.9        1.1
     170.5      169.5      167.8      166.0      163.6      161.3      157.6      154.0      150.9      147.8
     143.9      140.6      136.6      132.7      127.8      122.9      116.7      109.5      101.2       92.7
      85.3       79.4       73.8       67.5       59.9       52.8       45.0       37.9       30.5       23.4
      17.2       12.0        7.7        5.0        2.9        1.5        0.7        0.5        0.7        0.5
       0.7        0.5        0.7        0.5        0.7        0.6        0.7        0.7        0.5        0.7
       0.6        0.8        0.8        1.0        1.0        1.0        0.8        0.8        1.1        1.0
       1.1        1.1        1.0        1.1        0.7        1.1        1.1        0.7        0.7        0.7
       0.8        1.2        1.1
     170.5      170.9      170.2      169.4      168.3      168.2      167.8      167.9      167.2      165.1
     160.8      154.1      145.2      136.4      129.7      125.2      121.8      118.3      112.3      105.5
      97.5       89.3       79.2       69.3       60.4       52.5       44.2       36.4       30.6       24.9
      19.6       14.5       10.0        6.3        3.8        2.2        1.3        0.9        1.1        1.1
       1.1        1.0        0.8        0.9        0.6        0.5        0.8        0.5        0.9        0.7
       0.6        0.7        0.6        1.1        1.1        1.1        0.8        1.1        0.8        0.7
       1.1        1.1        1.1        0.7        1.1        1.2        1.1        1.2        1.3        0.7
       1.3        1.3        1.1
     170.5      171.3      171.9      171.3      172.8      175.0      177.0      177.1      174.4      169.3
     161.4      155.1      152.5      152.4      154.3      154.3      152.7      152.1      152.1      153.9
     157.3      160.0      161.3      159.3      151.6      138.6      121.6      101.1       79.8       56.1
      37.3       22.1       13.4        7.4        4.2        2.0        0.9        0.7        0.7        0.5
       0.7        0.5        1.0        0.8        1.0        0.7        0.5        1.0        0.7        0.9
       0.7        1.1        1.1        0.7        0.6        0.7        1.0        1.1        0.7        0.6
       1.1        0.8        1.1        1.1        0.8        1.2        1.1        1.2        0.7        1.1
       1.2        1.2        1.1
     170.5      170.0      170.5      170.9      173.0      176.0      177.8      177.3      173.6      167.2
     160.8      157.0      156.3      158.6      160.2      159.6      160.0      159.8      160.7      163.3
     170.6      179.7      187.5      190.9      186.1      171.7      151.7      129.5      107.1       80.2
      53.2       29.9       16.0        8.6        4.3        2.5        1.4        0.9        0.9        0.8
       0.5        0.5        0.6        0.7        0.5        0.5        0.5        0.8        0.7        0.7
       0.7        0.9        0.5        0.9        0.6        0.5        1.0        1.0        0.9        1.0
       0.5        1.0        1.1        1.1        0.9        1.0        1.1        0.5        0.6        0.9
       0.7        1.1        1.1
     170.5      171.3      171.9      171.3      172.8      175.0      177.0      177.1      174.4      169.3
     161.4      155.1      152.5      152.4      154.3      154.3      152.7      152.1      152.1      153.9
     157.3      160.0      161.3      159.3      151.6      138.6      121.6      101.1       79.8       56.1
      37.3       22.1       13.4        7.4        4.2        2.0        0.9        0.7        0.7        0.5
       0.7        0.5        1.0        0.8        1.0        0.7        0.5        1.0        0.7        0.9
       0.7        1.1        1.1        0.7        0.6        0.7        1.0        1.1        0.7        0.6
       1.1        0.8        1.1        1.1        0.8        1.2        1.1        1.2        0.7        1.1
       1.2        1.2        1.1
     170.5      170.9      170.2      169.4      168.3      168.2      167.8      167.9      167.2      165.1
     160.8      154.1      145.2      136.4      129.7      125.2      121.8      118.3      112.3      105.5
      97.5       89.3       79.2       69.3       60.4       52.5       44.2       36.4       30.6       24.9
      19.6       14.5       10.0        6.3        3.8        2.2        1.3        0.9        1.1        1.1
       1.1        1.0        0.8        0.9        0.6        0.5        0.8        0.5        0.9        0.7
       0.6        0.7        0.6        1.1        1.1        1.1        0.8        1.1        0.8        0.7
       1.1        1.1        1.1        0.7        1.1        1.2        1.1        1.2        1.3        0.7
       1.3        1.3        1.1
     170.5      169.5      167.8      166.0      163.6      161.3      157.6      154.0      150.9      147.8
     143.9      140.6      136.6      132.7      127.8      122.9      116.7      109.5      101.2       92.7
      85.3       79.4       73.8       67.5       59.9       52.8       45.0       37.9       30.5       23.4
      17.2       12.0        7.7        5.0        2.9        1.5        0.7        0.5        0.7        0.5
       0.7        0.5        0.7        0.5        0.7        0.6        0.7        0.7        0.5        0.7
       0.6        0.8        0.8        1.0        1.0        1.0        0.8        0.8        1.1        1.0
       1.1        1.1        1.0        1.1        0.7        1.1        1.1        0.7        0.7        0.7
       0.8        1.2        1.1
     170.5      170.2      169.9      169.0      167.6      165.7      164.0      161.0      158.1      155.1
     151.2      147.3      143.4      139.2      135.0      130.2      125.6      120.3      115.0      109.4
     103.4       97.0       90.1       83.4       76.3       69.0       60.4       50.8       40.5       30.9
      22.7       15.2        8.6        4.6        2.5        1.0        0.5        0.5        0.8        0.6
       0.7        0.6        0.8        0.7        0.9        0.7        0.7        0.7        0.6        0.9
       0.8        0.7        0.7        0.8        0.8        0.7        0.8        0.8        0.9        1.0
       0.7        0.6        0.9        1.1        0.9        0.9        1.0        1.0        1.1        1.1
       1.1        0.9        1.1
