IESNA:LM-63-1995
[TEST]    19159A
[MANUFAC]COOPER LIGHTING - SHAPER                                 
[LUMCAT]694-WP-12-CF1/32                                                                
[LUMINAIRE]EXTERIOR WALL MOUNT LUMINAIRE WHITE BACK AND STEEL BOWL INTERIOR WITH CLEAR FLAT PLASTIC LENS                 
[LAMP]ONE 32 WATT CPFL LAMP. LUMEN RATING = 2400 LMS.                                 
[OTHER]SIMULATED REORT FROM TEST WITH 1 - 26 WATT LAMP                                 
TILT=NONE
1
      2400
1
73
17
1
1
  0.33
  0.75
  0.00
1
1
    0.0000
0 2.5 5 7.5 10 12.5 15 17.5 20 22.5 25 27.5 30 32.5 35 37.5
40 42.5 45 47.5 50 52.5 55 57.5 60 62.5 65 67.5 70 72.5 75
77.5 80 82.5 85 87.5 90 92.5 95 97.5 100 102.5 105 107.5 110
112.5 115 117.5 120 122.5 125 127.5 130 132.5 135 137.5 140
142.5 145 147.5 150 152.5 155 157.5 160 162.5 165 167.5 170
172.5 175 177.5 180
0 22.5 45 67.5 90 112.5 135 157.5 180 202.5 225 247.5
270 292.5 315 337.5 360
     227.2      226.8      226.3      225.1      223.3      220.7      218.5      214.4      210.7      206.7
     201.5      196.3      191.0      185.5      179.8      173.5      167.3      160.2      153.1      145.7
     137.7      129.1      120.0      111.0      101.6       91.9       80.4       67.6       53.9       41.0
      30.1       20.0       11.4        6.0        3.2        1.2        0.5        0.5        0.9        0.7
       0.8        0.6        0.9        0.8        1.0        0.8        0.8        0.8        0.6        1.0
       0.9        0.8        0.8        0.9        0.9        0.8        0.9        0.9        1.1        1.1
       0.7        0.6        1.0        1.2        1.0        1.0        1.2        1.2        1.3        1.3
       1.3        1.1        1.3
     227.2      225.8      223.5      221.1      218.0      214.9      209.9      205.2      201.0      196.9
     191.7      187.3      182.0      176.7      170.2      163.7      155.4      145.8      134.8      123.5
     113.6      105.7       98.3       89.8       79.7       70.2       59.8       50.4       40.5       31.1
      22.7       15.9       10.1        6.5        3.7        1.9        0.8        0.5        0.8        0.5
       0.7        0.5        0.7        0.5        0.7        0.6        0.7        0.7        0.5        0.7
       0.6        0.9        0.9        1.1        1.1        1.1        0.9        0.9        1.2        1.1
       1.2        1.2        1.1        1.3        0.7        1.2        1.3        0.7        0.7        0.7
       0.9        1.5        1.3
     227.2      227.7      226.8      225.7      224.3      224.1      223.5      223.7      222.8      220.0
     214.3      205.3      193.4      181.7      172.7      166.8      162.3      157.5      149.5      140.6
     129.9      119.0      105.4       92.3       80.4       69.8       58.8       48.4       40.6       33.1
      26.0       19.2       13.2        8.2        4.9        2.7        1.5        1.0        1.2        1.2
       1.2        1.1        0.9        1.0        0.6        0.5        0.9        0.5        1.0        0.8
       0.6        0.8        0.6        1.2        1.2        1.3        0.9        1.3        0.9        0.7
       1.2        1.2        1.3        0.8        1.3        1.5        1.3        1.5        1.5        0.8
       1.5        1.5        1.3
     227.2      228.3      229.0      228.2      230.2      233.2      235.8      236.0      232.3      225.6
     215.0      206.7      203.2      203.0      205.6      205.5      203.4      202.6      202.7      205.0
     209.6      213.2      214.9      212.2      202.0      184.7      162.0      134.6      106.3       74.6
      49.5       29.3       17.7        9.7        5.5        2.5        1.0        0.8        0.8        0.5
       0.8        0.5        1.1        0.9        1.1        0.8        0.5        1.1        0.8        1.0
       0.8        1.2        1.2        0.7        0.6        0.7        1.1        1.2        0.7        0.6
       1.3        0.9        1.3        1.3        0.9        1.5        1.3        1.5        0.7        1.2
       1.5        1.5        1.3
     227.2      226.5      227.1      227.7      230.5      234.5      236.8      236.2      231.3      222.8
     214.2      209.1      208.2      211.3      213.4      212.6      213.1      212.9      214.1      217.5
     227.3      239.4      249.8      254.3      247.9      228.8      202.2      172.5      142.7      106.8
      70.8       39.6       21.1       11.3        5.6        3.1        1.7        1.0        1.0        0.9
       0.5        0.5        0.6        0.8        0.5        0.5        0.5        0.9        0.8        0.8
       0.7        1.0        0.5        1.0        0.6        0.5        1.1        1.1        1.0        1.1
       0.5        1.1        1.2        1.2        1.0        1.1        1.2        0.5        0.6        1.0
       0.8        1.3        1.3
     227.2      228.3      229.0      228.2      230.2      233.2      235.8      236.0      232.3      225.6
     215.0      206.7      203.2      203.0      205.6      205.5      203.4      202.6      202.7      205.0
     209.6      213.2      214.9      212.2      202.0      184.7      162.0      134.6      106.3       74.6
      49.5       29.3       17.7        9.7        5.5        2.5        1.0        0.8        0.8        0.5
       0.8        0.5        1.1        0.9        1.1        0.8        0.5        1.1        0.8        1.0
       0.8        1.2        1.2        0.7        0.6        0.7        1.1        1.2        0.7        0.6
       1.3        0.9        1.3        1.3        0.9        1.5        1.3        1.5        0.7        1.2
       1.5        1.5        1.3
     227.2      227.7      226.8      225.7      224.3      224.1      223.5      223.7      222.8      220.0
     214.3      205.3      193.4      181.7      172.7      166.8      162.3      157.5      149.5      140.6
     129.9      119.0      105.4       92.3       80.4       69.8       58.8       48.4       40.6       33.1
      26.0       19.2       13.2        8.2        4.9        2.7        1.5        1.0        1.2        1.2
       1.2        1.1        0.9        1.0        0.6        0.5        0.9        0.5        1.0        0.8
       0.6        0.8        0.6        1.2        1.2        1.3        0.9        1.3        0.9        0.7
       1.2        1.2        1.3        0.8        1.3        1.5        1.3        1.5        1.5        0.8
       1.5        1.5        1.3
     227.2      225.8      223.5      221.1      218.0      214.9      209.9      205.2      201.0      196.9
     191.7      187.3      182.0      176.7      170.2      163.7      155.4      145.8      134.8      123.5
     113.6      105.7       98.3       89.8       79.7       70.2       59.8       50.4       40.5       31.1
      22.7       15.9       10.1        6.5        3.7        1.9        0.8        0.5        0.8        0.5
       0.7        0.5        0.7        0.5        0.7        0.6        0.7        0.7        0.5        0.7
       0.6        0.9        0.9        1.1        1.1        1.1        0.9        0.9        1.2        1.1
       1.2        1.2        1.1        1.3        0.7        1.2        1.3        0.7        0.7        0.7
       0.9        1.5        1.3
     227.2      226.8      226.3      225.1      223.3      220.7      218.5      214.4      210.7      206.7
     201.5      196.3      191.0      185.5      179.8      173.5      167.3      160.2      153.1      145.7
     137.7      129.1      120.0      111.0      101.6       91.9       80.4       67.6       53.9       41.0
      30.1       20.0       11.4        6.0        3.2        1.2        0.5        0.5        0.9        0.7
       0.8        0.6        0.9        0.8        1.0        0.8        0.8        0.8        0.6        1.0
       0.9        0.8        0.8        0.9        0.9        0.8        0.9        0.9        1.1        1.1
       0.7        0.6        1.0        1.2        1.0        1.0        1.2        1.2        1.3        1.3
       1.3        1.1        1.3
     227.2      227.0      228.0      229.0      230.0      229.9      230.0      229.7      229.2      228.7
     226.8      225.2      223.2      220.8      218.5      214.5      211.1      206.6      201.7      196.7
     191.5      185.3      176.4      166.4      152.3      137.5      122.0      103.7       80.3       57.8
      38.6       22.5       12.1        6.7        3.7        1.5        1.0        1.0        0.6        0.5
       0.9        0.9        1.0        1.1        0.5        0.8        0.5        1.1        1.1        0.5
       0.5        1.0        1.0        1.1        1.1        0.9        1.1        1.2        1.0        1.1
       1.1        0.6        1.3        1.3        1.2        0.8        1.1        1.3        1.3        0.8
       1.5        1.1        1.3
     227.2      228.4      230.3      231.5      232.8      234.7      235.6      236.9      237.9      238.7
     238.3      238.7      239.7      240.5      241.3      238.1      234.5      232.3      233.3      237.1
     241.1      240.4      232.0      219.2      200.6      175.2      143.9      116.4       91.5       67.4
      45.7       28.3       17.8        9.4        4.2        2.0        1.1        1.0        0.6        0.7
       1.0        0.8        1.2        1.1        0.7        0.6        0.8        1.1        0.9        1.2
       1.2        0.6        1.2        1.0        0.5        1.2        1.1        1.0        1.3        1.3
       0.6        0.8        1.1        1.1        1.1        1.5        1.5        1.5        1.5        1.5
       0.8        1.0        1.3
     227.2      229.2      229.9      231.7      233.9      235.8      237.9      239.2      240.5      243.1
     245.6      248.3      248.5      247.2      249.6      254.8      263.5      272.6      276.3      275.6
     272.8      264.7      247.5      223.8      195.1      168.2      143.7      120.9       95.8       69.1
      49.1       34.0       23.5       13.7        6.6        1.8        1.0        1.1        0.7        0.5
       1.0        1.0        0.9        1.1        0.9        1.0        0.9        1.1        1.2        1.1
       0.9        1.2        1.2        1.2        1.1        1.0        1.1        1.2        1.2        1.3
       1.0        0.8        1.2        1.3        1.2        1.5        1.5        0.7        0.7        1.5
       1.2        1.5        1.3
     227.2      225.6      226.0      227.0      228.6      229.7      231.8      233.3      234.6      236.0
     238.7      240.2      239.3      241.6      247.1      257.6      268.2      274.0      274.4      272.2
     266.7      255.9      234.6      210.1      182.8      161.4      140.6      118.7       91.1       66.9
      48.5       36.4       24.9       14.4        6.4        1.9        0.9        0.8        0.5        0.8
       0.8        0.5        0.9        0.9        1.0        1.0        1.0        0.5        0.8        0.9
       0.7        1.0        0.9        1.0        1.0        0.6        1.1        1.0        0.9        1.1
       0.8        0.6        1.0        1.0        0.6        1.2        0.9        1.2        1.2        1.2
       1.3        0.7        1.3
     227.2      229.2      229.9      231.7      233.9      235.8      237.9      239.2      240.5      243.1
     245.6      248.3      248.5      247.2      249.6      254.8      263.5      272.6      276.3      275.6
     272.8      264.7      247.5      223.8      195.1      168.2      143.7      120.9       95.8       69.1
      49.1       34.0       23.5       13.7        6.6        1.8        1.0        1.1        0.7        0.5
       1.0        1.0        0.9        1.1        0.9        1.0        0.9        1.1        1.2        1.1
       0.9        1.2        1.2        1.2        1.1        1.0        1.1        1.2        1.2        1.3
       1.0        0.8        1.2        1.3        1.2        1.5        1.5        0.7        0.7        1.5
       1.2        1.5        1.3
     227.2      228.4      230.3      231.5      232.8      234.7      235.6      236.9      237.9      238.7
     238.3      238.7      239.7      240.5      241.3      238.1      234.5      232.3      233.3      237.1
     241.1      240.4      232.0      219.2      200.6      175.2      143.9      116.4       91.5       67.4
      45.7       28.3       17.8        9.4        4.2        2.0        1.1        1.0        0.6        0.7
       1.0        0.8        1.2        1.1        0.7        0.6        0.8        1.1        0.9        1.2
       1.2        0.6        1.2        1.0        0.5        1.2        1.1        1.0        1.3        1.3
       0.6        0.8        1.1        1.1        1.1        1.5        1.5        1.5        1.5        1.5
       0.8        1.0        1.3
     227.2      227.0      228.0      229.0      230.0      229.9      230.0      229.7      229.2      228.7
     226.8      225.2      223.2      220.8      218.5      214.5      211.1      206.6      201.7      196.7
     191.5      185.3      176.4      166.4      152.3      137.5      122.0      103.7       80.3       57.8
      38.6       22.5       12.1        6.7        3.7        1.5        1.0        1.0        0.6        0.5
       0.9        0.9        1.0        1.1        0.5        0.8        0.5        1.1        1.1        0.5
       0.5        1.0        1.0        1.1        1.1        0.9        1.1        1.2        1.0        1.1
       1.1        0.6        1.3        1.3        1.2        0.8        1.1        1.3        1.3        0.8
       1.5        1.1        1.3
     227.2      226.8      226.3      225.1      223.3      220.7      218.5      214.4      210.7      206.7
     201.5      196.3      191.0      185.5      179.8      173.5      167.3      160.2      153.1      145.7
     137.7      129.1      120.0      111.0      101.6       91.9       80.4       67.6       53.9       41.0
      30.1       20.0       11.4        6.0        3.2        1.2        0.5        0.5        0.9        0.7
       0.8        0.6        0.9        0.8        1.0        0.8        0.8        0.8        0.6        1.0
       0.9        0.8        0.8        0.9        0.9        0.8        0.9        0.9        1.1        1.1
       0.7        0.6        1.0        1.2        1.0        1.0        1.2        1.2        1.3        1.3
       1.3        1.1        1.3
