IESNA91
[TEST] LTL7480
[MANUFAC] LITHONIA LIGHTING
[LUMCAT] AVSR 1 26DTT MDR
[LUMINAIRE] 1X1AVante wall Sconce Recessed, (Nominal 1' X 1'), 1 lamp
[MORE] Double Twin Tube  26 watt, Metal Diffuser w/ Round perforations
[MORE] backed w/ acrylic overlay.
[LAMPCAT] CF26DD/E/835
[LAMP] ONE 26-WATT DOUBLE TWIN TUBE COMPACT FLUORESCENT.
[BALLAST] ES-1-CFH-42/32/26 UNV C
[_PRODUCTGROUP] ARCHITECTURAL FLUORESCENT
[_INFOLINK] www.lithonia.com/visual/ies/ies.asp?vfile=
TILT=NONE
1  1825  1  73  19  1  1  1  1  0
1  1  27
0  2.5  5  7.5  10  12.5  15  17.5  20  22.5
25  27.5  30  32.5  35  37.5  40  42.5  45  47.5
50  52.5  55  57.5  60  62.5  65  67.5  70  72.5
75  77.5  80  82.5  85  87.5  90  92.5  95  97.5
100  102.5  105  107.5  110  112.5  115  117.5  120  122.5
125  127.5  130  132.5  135  137.5  140  142.5  145  147.5
150  152.5  155  157.5  160  162.5  165  167.5  170  172.5
175  177.5  180 
0  10  20  30  40  50  60  70  80  90
100  110  120  130  140  150  160  170  180 
22  25  27  31  35  40  46  51  58  64
71  78  85  93  100  107  115  123  130  138
147  154  163  171  180  188  196  204  213  221
229  238  245  253  258  265  270  271  278  286
294  301  309  317  325  333  341  349  356  362
369  374  377  376  372  367  361  355  350  350
350  350  348  339  321  301  281  257  225  138
55  26  10 
22  23  26  29  34  38  43  49  56  62
69  76  83  90  97  105  112  120  127  135
144  152  160  168  176  184  192  200  208  217
225  233  241  249  254  262  268  272  280  288
296  303  311  319  327  336  344  353  360  367
374  378  380  378  373  367  361  355  352  353
352  352  349  335  317  296  275  251  203  106
42  22  10 
22  23  26  29  33  37  43  48  54  60
66  73  80  87  93  101  108  115  122  130
138  145  153  160  168  175  182  190  197  205
213  221  229  236  242  250  257  260  267  275
283  291  300  308  316  326  337  346  352  363
368  371  370  371  364  361  355  350  349  348
348  347  341  324  307  287  266  242  182  88
38  21  10 
22  24  26  29  33  36  41  46  51  56
62  68  74  81  86  93  99  105  111  117
124  130  137  143  149  156  162  169  176  184
190  198  205  212  217  225  228  228  236  243
252  260  269  279  289  299  309  319  328  337
341  343  343  340  336  332  330  331  333  335
336  334  320  306  289  270  252  218  147  64
32  19  10 
22  24  25  27  31  33  37  41  45  50
55  60  64  70  74  79  84  88  93  98
103  109  114  119  124  129  135  140  146  153
159  165  172  178  182  190  193  195  202  209
217  225  234  243  252  261  269  278  285  290
293  296  298  299  299  302  307  312  317  321
319  309  298  285  270  253  232  175  100  45
27  17  10 
22  23  24  26  28  30  33  36  39  42
45  49  52  56  59  63  66  70  73  77
81  84  88  91  96  99  103  107  111  116
121  126  131  136  140  147  149  151  157  164
170  177  184  190  196  203  209  215  220  225
230  235  240  248  257  266  275  283  288  284
281  275  266  254  243  221  173  104  54  32
23  15  10 
22  23  24  25  26  27  29  31  33  34
37  39  41  43  45  48  50  52  54  57
59  61  63  65  68  70  72  75  78  81
84  88  91  95  97  103  103  103  108  112
117  121  125  130  134  139  144  148  152  156
163  174  186  198  210  220  225  229  232  234
234  232  227  213  179  130  84  47  33  25
19  14  10 
22  23  23  24  24  25  25  26  27  28
29  30  31  31  32  33  34  35  36  37
38  39  40  41  42  43  44  45  46  48
50  52  54  56  58  61  60  59  61  63
66  69  71  74  76  78  83  90  98  107
117  126  133  139  145  151  158  163  166  164
155  138  113  84  59  42  33  27  22  19
15  12  10 
22  22  23  23  23  23  23  23  23  23
22  22  22  22  21  21  21  21  20  20
20  20  19  19  20  20  20  20  21  22
23  23  24  25  26  27  26  24  25  26
28  29  30  31  32  33  34  35  36  37
38  38  38  36  35  34  33  32  31  29
27  25  23  22  20  19  18  16  15  13
11  10  10 
22  22  22  22  21  21  21  20  20  19
19  18  17  16  15  14  14  13  12  11
10  9  8  7  6  5  5  4  4  3
3  2  2  2  1  1  1  1  1  1
1  1  1  2  2  2  3  3  3  3
4  4  4  4  4  4  4  4  4  4
5  5  6  6  7  7  7  8  8  8
8  8  10 
22  21  21  20  19  18  17  16  15  14
13  12  11  10  9  9  7  6  5  4
4  3  2  2  1  1  1  0  0  0
0  0  0  0  0  0  0  0  0  0
0  0  0  0  0  0  0  0  0  0
0  0  0  0  0  0  0  0  0  0
0  0  0  0  0  0  0  1  2  3
5  7  10 
22  21  19  18  16  15  14  12  11  10
8  7  6  5  4  3  2  1  1  1
1  0  1  0  0  0  0  0  0  0
0  0  0  0  0  0  0  0  0  0
0  0  0  0  0  0  0  0  0  0
0  0  0  0  0  0  0  0  0  0
0  0  0  0  0  0  0  0  0  0
2  5  10 
22  20  18  16  14  12  11  9  8  6
4  3  2  1  1  1  0  0  0  0
0  0  0  0  0  0  0  0  0  0
0  0  0  0  0  0  0  0  0  0
0  0  0  0  0  0  0  0  0  0
0  0  0  0  0  0  0  0  0  0
0  0  0  0  0  0  0  0  0  0
0  4  10 
22  19  17  14  12  10  8  6  5  3
2  0  0  0  0  0  0  0  0  0
0  0  0  0  0  0  0  0  0  0
0  0  0  0  0  0  0  0  0  0
0  0  0  0  0  0  0  0  0  0
0  0  0  0  0  0  0  0  0  0
0  0  0  0  0  0  0  0  0  0
0  3  10 
22  19  16  13  11  8  6  4  2  1
0  0  0  0  0  0  0  0  0  0
0  0  0  0  0  0  0  0  0  0
0  0  0  0  0  0  0  0  0  0
0  0  0  0  0  0  0  0  0  0
0  0  0  0  0  0  0  0  0  0
0  0  0  0  0  0  0  0  0  0
0  3  10 
22  18  15  12  9  7  4  2  1  0
0  0  0  0  0  0  0  0  0  0
0  0  0  0  0  0  0  0  0  0
0  0  0  0  0  0  0  0  0  0
0  0  0  0  0  0  0  0  0  0
0  0  0  0  0  0  0  0  0  0
0  0  0  0  0  0  0  0  0  0
0  2  10 
22  17  14  11  8  6  3  1  0  0
0  0  0  0  0  0  0  0  0  0
0  0  0  0  0  0  0  0  0  0
0  0  0  0  0  0  0  0  0  0
0  0  0  0  0  0  0  0  0  0
0  0  0  0  0  0  0  0  0  0
0  0  0  0  0  0  0  0  0  0
0  2  10 
22  17  14  11  8  5  3  1  0  0
0  0  0  0  0  0  0  0  0  0
0  0  0  0  0  0  0  0  0  0
0  0  0  0  0  0  0  0  0  0
0  0  0  0  0  0  0  0  0  0
0  0  0  0  0  0  0  0  0  0
0  0  0  0  0  0  0  0  0  0
0  2  10 
22  16  13  10  7  4  2  0  0  0
0  0  0  0  0  0  0  0  0  0
0  0  0  0  0  0  0  0  0  0
0  0  0  0  0  0  0  0  0  0
0  0  0  0  0  0  0  0  0  0
0  0  0  0  0  0  0  0  0  0
0  0  0  0  0  0  0  0  0  0
0  5  10 
