IESNA91
[TEST] LTL7478
[MANUFAC] LITHONIA LIGHTING
[LUMCAT] AVSR 1 CF26DTT MDR
[LUMINAIRE] 1X1AVante wall Sconce Recessed, (Nominal 1' X 1'), 1 lamp
[MORE] Compact Fluorescent Double Twin Tube  26 watt, Metal Diffuser w/
[MORE] Round perforations backed w/ acrylic overlay.
[LAMPCAT] CF26DT/E/IN/835
[LAMP] ONE 26-WATT TRIPLE TUBE COMPACT FLUORESCENT.
[BALLAST] ES-1-CFH-42/32/26 UNV C
[_PRODUCTGROUP] ARCHITECTURAL FLUORESCENT
[_INFOLINK] www.lithonia.com/visual/ies/ies.asp?vfile=
TILT=NONE
1  1800  1  73  19  1  1  1  1  0
1  1  29
0  2.5  5  7.5  10  12.5  15  17.5  20  22.5
25  27.5  30  32.5  35  37.5  40  42.5  45  47.5
50  52.5  55  57.5  60  62.5  65  67.5  70  72.5
75  77.5  80  82.5  85  87.5  90  92.5  95  97.5
100  102.5  105  107.5  110  112.5  115  117.5  120  122.5
125  127.5  130  132.5  135  137.5  140  142.5  145  147.5
150  152.5  155  157.5  160  162.5  165  167.5  170  172.5
175  177.5  180 
0  10  20  30  40  50  60  70  80  90
100  110  120  130  140  150  160  170  180 
26  28  31  36  41  45  53  59  66  73
81  89  96  104  112  120  128  136  144  153
162  170  180  188  197  206  215  223  232  241
249  258  266  273  279  286  297  304  312  320
328  336  344  352  360  368  376  384  391  399
407  415  420  422  421  416  410  405  402  401
399  396  392  383  363  337  311  282  225  140
68  27  11 
26  28  31  36  41  46  52  59  67  74
81  89  96  104  112  120  128  137  145  153
162  171  180  189  198  207  216  225  234  243
252  261  270  278  283  292  300  306  314  322
331  339  347  355  364  372  380  389  397  405
413  421  425  426  422  416  411  407  405  402
400  397  393  380  358  332  304  270  205  115
48  23  11 
26  28  31  35  40  45  51  57  64  70
78  85  93  100  107  115  124  131  138  146
154  162  170  178  186  195  203  211  220  229
237  246  254  262  267  276  283  287  296  304
312  321  330  338  347  357  366  376  386  396
405  412  416  414  410  405  400  397  396  395
393  391  385  368  346  320  293  251  186  98
40  22  11 
26  28  30  34  38  42  48  53  60  65
72  79  86  92  99  106  112  119  125  131
139  145  152  159  166  173  181  188  196  204
211  220  227  235  240  248  254  257  265  274
282  291  301  311  321  332  343  355  366  376
385  390  390  387  384  381  380  380  381  381
381  378  366  347  326  301  277  221  154  79
34  20  11 
26  28  30  33  37  40  44  49  54  59
65  71  76  82  87  92  97  102  107  112
118  124  129  134  140  146  152  158  165  171
178  185  192  198  203  211  215  218  226  233
242  250  260  270  280  289  299  310  318  326
332  337  339  342  345  349  354  358  362  364
363  353  338  321  300  279  237  181  110  53
28  18  11 
26  28  29  31  34  37  40  44  48  51
56  60  64  68  72  76  80  83  87  91
95  99  103  107  111  115  119  123  128  134
139  145  150  155  159  167  169  170  177  183
191  198  205  212  219  226  234  241  247  254
260  267  276  286  296  305  315  324  330  329
322  313  300  283  267  223  180  115  71  35
24  16  11 
26  28  29  30  32  33  35  38  40  43
45  48  51  53  55  58  61  63  65  68
70  73  75  77  80  82  85  88  90  94
97  100  104  108  111  116  117  117  122  127
132  137  142  147  152  157  162  167  173  180
190  201  214  228  241  253  261  265  269  270
268  262  250  216  184  135  96  61  35  26
20  14  11 
26  27  28  29  29  30  31  32  33  34
36  37  38  39  40  41  42  43  44  45
46  47  49  50  50  51  52  54  55  57
58  60  62  64  66  69  68  67  70  72
75  78  81  84  87  92  97  105  113  123
134  145  152  161  167  173  178  183  186  180
169  152  119  94  71  48  34  28  24  19
16  12  11 
26  27  27  28  28  27  27  28  28  28
28  27  27  27  28  26  26  26  25  25
25  25  24  25  24  25  25  26  26  27
28  28  29  30  31  32  31  28  29  31
32  34  35  37  38  39  40  42  42  42
42  43  42  42  41  40  39  37  35  32
29  27  25  23  22  20  19  17  15  13
12  10  11 
26  27  26  26  26  26  25  24  24  23
22  22  21  20  19  18  17  16  14  13
12  11  10  9  8  7  6  6  5  4
4  4  4  3  3  3  1  0  0  0
0  1  1  1  1  2  2  2  3  3
3  4  4  4  4  4  5  5  5  5
5  6  6  6  7  7  7  7  8  8
8  8  11 
26  26  25  24  24  22  21  20  19  18
17  16  14  13  12  10  10  8  7  6
5  4  4  3  2  2  2  1  1  1
1  1  1  1  0  0  0  0  0  0
0  0  0  0  0  0  0  0  0  0
0  0  0  0  0  0  0  0  0  0
0  0  0  0  0  0  0  0  1  3
4  6  11 
26  25  24  22  21  19  18  16  14  13
12  10  9  7  6  5  4  3  2  2
1  1  1  1  1  1  1  1  1  1
0  1  1  0  0  0  0  0  0  0
0  0  0  0  0  0  0  0  0  0
0  0  0  0  0  0  0  0  0  0
0  0  0  0  0  0  0  0  0  0
2  5  11 
26  25  22  20  18  16  14  13  10  9
7  5  4  3  2  1  1  1  1  1
1  1  1  1  1  1  1  1  1  0
0  1  1  0  0  0  0  0  0  0
0  0  0  0  0  0  0  0  0  0
0  0  0  0  0  0  0  0  0  0
0  0  0  0  0  0  0  0  0  0
0  4  11 
26  24  21  19  16  14  11  10  7  6
4  3  1  1  1  1  1  1  1  1
0  0  1  0  0  0  0  0  0  0
0  0  0  0  0  0  0  0  0  0
0  0  0  0  0  0  0  0  0  0
0  0  0  0  0  0  0  0  0  0
0  0  0  0  0  0  0  0  0  0
0  3  11 
26  23  20  17  14  11  9  7  5  3
2  1  1  1  1  1  1  0  0  0
0  0  0  0  0  0  0  0  0  0
0  0  0  0  0  0  0  0  0  0
0  0  0  0  0  0  0  0  0  0
0  0  0  0  0  0  0  0  0  0
0  0  0  0  0  0  0  0  0  0
0  2  11 
26  23  19  16  13  10  7  5  3  1
1  1  1  1  0  0  0  0  0  0
0  0  0  0  0  0  0  0  0  0
0  0  0  0  0  0  0  0  0  0
0  0  0  0  0  0  0  0  0  0
0  0  0  0  0  0  0  0  0  0
0  0  0  0  0  0  0  0  0  0
0  2  11 
26  22  19  15  12  9  6  4  2  1
1  1  0  0  0  0  0  0  0  0
0  0  0  0  0  0  0  0  0  0
0  0  0  0  0  0  0  0  0  0
0  0  0  0  0  0  0  0  0  0
0  0  0  0  0  0  0  0  0  0
0  0  0  0  0  0  0  0  0  0
0  2  11 
26  23  18  15  11  8  5  3  1  1
1  1  0  0  0  0  0  0  0  0
0  0  0  0  0  0  0  0  0  0
0  0  0  0  0  0  0  0  0  0
0  0  0  0  0  0  0  0  0  0
0  0  0  0  0  0  0  0  0  0
0  0  0  0  0  0  0  0  0  0
0  2  11 
26  21  17  14  10  7  5  3  1  0
0  0  0  0  0  0  0  0  0  0
0  0  0  0  0  0  0  0  0  0
0  0  0  0  0  0  0  0  0  0
0  0  0  0  0  0  0  0  0  0
0  0  0  0  0  0  0  0  0  0
0  0  0  0  0  0  0  0  0  0
0  4  11 
