IESNA91
[TEST] LTL7476
[MANUFAC] LITHONIA LIGHTING
[LUMCAT] AVSR 1 32TRT MDR
[LUMINAIRE] 1X1AVante wall Sconce Recessed, (Nominal 1' X 1'), 1 lamp TRT
[MORE] 32 watt, Metal Diffuser w/ Round perforations backed w/ acrylic
[MORE] overlay.
[LAMPCAT] CF32DT/E/IN/835
[LAMP] ONE 32-WATT TRIPLE TUBE COMPACT FLUORESCENT.
[BALLAST] ES-1-CFH-42/32/26 UNV C
[_PRODUCTGROUP] ARCHITECTURAL FLUORESCENT
[_INFOLINK] www.lithonia.com/visual/ies/ies.asp?vfile=
TILT=NONE
1  2400  1  73  19  1  1  1  1  0
1  1  35
0  2.5  5  7.5  10  12.5  15  17.5  20  22.5
25  27.5  30  32.5  35  37.5  40  42.5  45  47.5
50  52.5  55  57.5  60  62.5  65  67.5  70  72.5
75  77.5  80  82.5  85  87.5  90  92.5  95  97.5
100  102.5  105  107.5  110  112.5  115  117.5  120  122.5
125  127.5  130  132.5  135  137.5  140  142.5  145  147.5
150  152.5  155  157.5  160  162.5  165  167.5  170  172.5
175  177.5  180 
0  10  20  30  40  50  60  70  80  90
100  110  120  130  140  150  160  170  180 
31  34  38  42  48  54  62  69  76  86
95  103  111  121  130  140  149  159  169  178
189  199  210  220  231  241  252  262  272  283
292  303  313  322  328  337  353  365  375  384
395  404  415  424  434  443  455  465  475  486
496  508  517  522  521  518  515  517  520  523
527  531  526  506  474  441  407  367  288  173
83  33  12 
31  34  37  42  48  53  60  68  76  85
93  103  111  121  131  140  150  160  169  179
190  200  211  222  232  243  254  265  275  286
297  308  318  328  335  345  360  370  380  389
400  409  420  430  440  451  462  473  484  496
507  519  527  529  526  523  523  525  527  531
535  537  527  501  468  435  399  347  263  145
63  27  12 
31  33  36  41  47  51  58  66  74  81
90  99  107  116  125  134  143  152  161  170
180  189  199  208  219  228  238  248  258  268
278  289  299  309  315  326  339  349  359  368
380  389  401  411  423  435  447  461  474  488
500  511  518  517  514  513  515  518  522  527
533  531  514  486  455  422  387  322  240  126
55  25  12 
31  33  36  40  45  49  55  62  69  76
84  92  99  107  115  123  131  139  146  154
162  170  178  186  195  203  212  221  230  240
249  258  268  276  283  293  305  313  323  332
344  354  366  379  392  406  420  436  451  465
477  486  489  488  488  492  497  503  510  517
520  510  486  458  431  398  362  286  190  100
44  23  12 
31  33  36  39  43  46  51  56  63  68
75  82  88  95  101  107  113  119  125  132
138  144  151  157  165  171  179  186  194  202
209  218  226  234  240  250  259  265  274  284
294  305  318  330  342  355  369  382  395  406
415  422  428  438  449  459  470  482  493  496
486  469  445  423  395  366  304  230  139  68
36  21  12 
31  33  35  37  40  43  46  51  55  59
64  69  74  79  83  88  92  97  102  106
111  115  120  125  130  135  140  145  151  158
164  171  177  184  189  197  204  208  216  224
233  243  253  262  272  282  292  302  311  319
328  344  361  378  396  414  433  443  444  437
425  413  396  375  346  290  231  148  91  47
29  19  12 
31  33  34  36  37  39  42  44  47  49
52  55  58  62  64  67  70  73  76  79
82  84  87  90  93  96  99  103  106  110
115  119  123  128  132  138  141  143  149  155
162  168  175  181  188  195  202  209  220  237
252  272  293  316  332  342  348  351  354  354
350  345  319  280  238  170  122  75  47  31
23  16  12 
31  33  33  34  35  36  36  38  39  40
41  43  44  45  46  47  48  49  51  52
53  55  56  57  58  60  61  62  64  66
68  71  73  76  78  82  82  82  85  89
93  96  100  103  109  117  128  141  155  171
181  191  199  207  213  219  227  232  234  226
210  185  150  119  90  62  46  35  28  22
18  14  12 
31  32  33  33  33  33  33  33  33  33
32  32  32  32  31  31  30  30  29  29
29  28  28  28  28  28  28  29  30  31
32  32  33  34  35  37  36  34  37  38
40  42  44  46  48  49  51  52  53  55
56  56  57  56  55  54  51  49  46  42
37  34  30  28  26  23  21  20  18  16
14  12  12 
31  31  31  31  31  30  29  29  28  28
27  26  25  23  22  21  20  18  17  16
15  13  12  11  10  9  8  8  7  6
6  6  6  5  5  5  3  1  1  1
1  1  2  2  2  3  3  3  4  4
5  5  5  5  6  6  6  6  6  6
7  7  8  8  8  9  9  9  9  10
10  10  12 
31  30  30  29  27  26  25  24  23  21
20  19  17  16  14  13  12  10  9  8
7  6  5  4  3  3  2  2  2  2
1  1  1  1  1  1  0  0  0  0
0  0  1  0  0  0  0  0  0  0
0  0  0  1  0  0  0  0  0  0
0  0  0  0  0  0  0  1  2  4
6  8  12 
31  30  28  26  24  23  21  19  17  16
14  12  11  9  8  6  5  4  3  3
2  2  2  2  2  1  2  1  1  2
1  1  1  1  1  1  0  0  0  0
0  0  0  0  0  0  0  0  0  0
0  0  0  0  0  0  0  0  0  0
0  0  0  0  0  0  0  0  0  0
3  6  12 
31  29  26  24  21  19  17  15  13  11
9  7  6  4  3  2  2  2  2  2
1  1  1  1  1  1  1  1  1  1
1  1  1  1  0  0  0  0  0  0
0  0  0  0  0  0  0  0  0  0
0  0  0  0  0  0  0  0  0  0
0  0  0  0  0  0  0  0  0  0
1  5  12 
31  29  25  22  19  16  14  11  9  7
5  3  2  2  2  1  1  1  1  1
1  1  1  1  1  1  1  1  0  1
1  0  0  0  0  0  0  0  0  0
0  0  1  0  0  0  0  0  0  0
0  0  0  0  0  0  0  0  0  0
0  0  0  0  0  0  0  0  0  0
0  4  12 
31  27  24  20  17  14  11  8  6  4
2  2  1  1  1  1  1  1  1  1
1  1  1  1  0  0  0  0  0  0
0  0  0  0  0  0  0  0  0  0
0  0  0  0  0  0  0  0  0  0
0  0  0  0  0  0  0  0  0  0
0  0  0  0  0  0  0  0  0  0
0  4  12 
31  26  23  19  15  12  9  6  4  2
1  1  1  1  1  0  0  0  0  0
0  0  0  0  0  0  0  0  0  0
0  0  0  0  0  0  0  0  0  0
0  0  0  0  0  0  0  0  0  0
0  0  0  0  0  0  0  0  0  0
0  0  0  0  0  0  0  0  0  0
0  3  12 
31  26  22  18  14  11  8  5  2  1
1  1  1  1  0  0  0  0  0  0
0  0  0  0  0  0  0  0  0  0
0  0  0  0  0  0  0  0  0  0
0  0  0  0  0  0  0  0  0  0
0  0  0  0  0  0  0  0  0  0
0  0  0  0  0  0  0  0  0  0
0  3  12 
31  26  21  17  13  10  7  4  2  1
1  1  1  0  0  0  0  0  0  0
0  0  0  0  0  0  0  0  0  0
0  0  0  0  0  0  0  0  0  0
0  0  0  0  0  0  0  0  0  0
0  0  0  0  0  0  0  0  0  0
0  0  0  0  0  0  0  0  0  0
0  3  12 
31  26  21  17  13  9  6  4  2  1
1  1  0  1  0  0  0  0  0  0
0  0  0  0  0  0  1  1  0  0
0  0  0  0  0  0  0  0  0  0
0  0  0  0  0  0  0  0  0  0
0  0  0  0  0  0  0  0  0  0
0  0  0  0  0  0  0  0  0  0
0  5  12 
