IESNA:LM-63-2002
[TEST]253p130
[TESTLAB]METALUX LABORITORIES
[ISSUEDATE]07/30/07
[MANUFAC]COOPER LIGHTING - SHAPER
[LUMCAT]1240-OB-36-CFL/3/55 
[LUMINAIRE]SHAPER 36 INCH 1240 SERIES DIRECT/INDIRECT INDOOR PENDANT FIXTURE
[LAMP]THREE - F55BX - 55 WATTS
[MORE]THREE GX24 T4 COMPACT FLUORESCENT LAMPS 
TILT=NONE
3 4800 1 73 37 1 1 -3 -3 0
1 1 177
0 2.5 5 7.5 10 12.5 15 17.5 20 22.5 25 27.5 30 32.5 35 37.5 40 42.5 45 47.5 50 
52.5 55 57.5 60 62.5 65 67.5 70 72.5 75 77.5 80 82.5 85 87.5 90 92.5 95 97.5 100 
102.5 105 107.5 110 112.5 115 117.5 120 122.5 125 127.5 130 132.5 135 137.5 140 
142.5 145 147.5 150 152.5 155 157.5 160 162.5 165 167.5 170 172.5 175 177.5 180 
0 10 20 30 40 50 60 70 80 90 100 110 120 130 140 150 160 170 180 190 200 210 220 
230 240 250 260 270 280 290 300 310 320 330 340 350 360
0 0 0 0 0 0 0 0 0 0 0 0 0 0 0 0 0 0 0 0 0 0 0 0 0 0 0 0 0 0 0 0 0 0 0 0 4 120
320 541 788 1084 1417 1662 1785 1836 1917 2003 2139 2242 2358 2528 2646 2708
2673 2592 2483 2346 2201 2058 1928 1824 1737 1649 1559 1465 1373 1277 1187 1104
1032 977 960
0 0 0 0 0 0 0 0 0 0 0 0 0 0 0 0 0 0 0 0 0 0 0 0 0 0 0 0 0 0 0 0 0 0 0 0 4 116
310 527 721 974 1284 1529 1688 1775 1851 1940 2055 2156 2276 2424 2529 2573 2560
2522 2459 2364 2250 2127 1999 1874 1760 1649 1549 1460 1372 1280 1193 1109 1036
984 960
0 0 0 0 0 0 0 0 0 0 0 0 0 0 0 0 0 0 0 0 0 0 0 0 0 0 0 0 0 0 0 0 0 0 0 0 4 113
299 510 653 862 1151 1393 1591 1713 1784 1877 1970 2069 2193 2319 2412 2438 2446
2449 2435 2379 2297 2194 2069 1922 1780 1648 1538 1454 1371 1282 1198 1113 1040
991 960
0 0 0 0 0 0 0 0 0 0 0 0 0 0 0 0 0 0 0 0 0 0 0 0 0 0 0 0 0 0 0 0 0 0 0 0 3 107
289 480 594 743 960 1197 1390 1552 1724 1857 1939 2019 2113 2221 2266 2265 2246
2233 2242 2241 2206 2143 2056 1944 1805 1657 1525 1420 1344 1266 1189 1109 1039
997 960
0 0 0 0 0 0 0 0 0 0 0 0 0 0 0 0 0 0 0 0 0 0 0 0 0 0 0 0 0 0 0 0 0 0 0 0 3 124
334 527 675 833 1024 1252 1441 1651 1857 2022 2154 2248 2295 2306 2338 2345 2320
2269 2247 2243 2239 2191 2112 2015 1888 1730 1582 1447 1357 1276 1196 1116 1043
984 960
0 0 0 0 0 0 0 0 0 0 0 0 0 0 0 0 0 0 0 0 0 0 0 0 0 0 0 0 0 0 0 0 0 0 0 0 5 160
390 572 768 916 1089 1305 1573 1821 2041 2245 2388 2435 2425 2404 2413 2431 2409
2354 2298 2276 2265 2231 2158 2060 1939 1785 1625 1478 1371 1288 1205 1122 1045
985 960
0 0 0 0 0 0 0 0 0 0 0 0 0 0 0 0 0 0 0 0 0 0 0 0 0 0 0 0 0 0 0 0 0 0 0 0 4 195
432 628 839 969 1143 1402 1703 1991 2216 2373 2490 2538 2521 2479 2470 2487 2470
2422 2348 2310 2287 2263 2196 2099 1984 1833 1662 1505 1382 1296 1212 1127 1049
986 960
0 0 0 0 0 0 0 0 0 0 0 0 0 0 0 0 0 0 0 0 0 0 0 0 0 0 0 0 0 0 0 0 0 0 0 0 5 169
388 571 754 915 1095 1346 1596 1857 2084 2265 2407 2474 2474 2454 2462 2477 2460
2409 2345 2313 2294 2254 2179 2080 1962 1808 1644 1494 1381 1296 1212 1127 1049
987 960
0 0 0 0 0 0 0 0 0 0 0 0 0 0 0 0 0 0 0 0 0 0 0 0 0 0 0 0 0 0 0 0 0 0 0 0 5 141
343 511 669 860 1046 1290 1488 1721 1952 2156 2322 2408 2427 2428 2452 2466 2449
2394 2340 2315 2299 2244 2161 2061 1937 1780 1625 1481 1378 1295 1211 1126 1049
988 960
0 0 0 0 0 0 0 0 0 0 0 0 0 0 0 0 0 0 0 0 0 0 0 0 0 0 0 0 0 0 0 0 0 0 0 0 3 108
289 444 588 741 963 1225 1439 1620 1833 2019 2126 2198 2288 2388 2431 2435 2406
2365 2340 2333 2290 2214 2124 2014 1873 1721 1575 1456 1371 1287 1205 1120 1045
986 960
0 0 0 0 0 0 0 0 0 0 0 0 0 0 0 0 0 0 0 0 0 0 0 0 0 0 0 0 0 0 0 0 0 0 0 0 3 114
304 498 661 825 1117 1390 1640 1808 1918 2030 2093 2181 2323 2442 2525 2521 2496
2481 2473 2421 2341 2249 2134 1992 1842 1696 1566 1471 1385 1295 1207 1120 1045
986 960
0 0 0 0 0 0 0 0 0 0 0 0 0 0 0 0 0 0 0 0 0 0 0 0 0 0 0 0 0 0 0 0 0 0 0 0 4 118
313 521 726 955 1268 1527 1714 1823 1918 2017 2117 2212 2341 2486 2586 2615 2586
2537 2479 2384 2272 2154 2032 1908 1791 1674 1563 1469 1380 1287 1197 1113 1039
982 960
0 0 0 0 0 0 0 0 0 0 0 0 0 0 0 0 0 0 0 0 0 0 0 0 0 0 0 0 0 0 0 0 0 0 0 0 4 120
320 541 788 1084 1417 1662 1785 1836 1917 2003 2139 2242 2358 2528 2646 2708
2673 2592 2483 2346 2201 2058 1928 1824 1737 1649 1559 1465 1373 1277 1187 1104
1032 977 960
0 0 0 0 0 0 0 0 0 0 0 0 0 0 0 0 0 0 0 0 0 0 0 0 0 0 0 0 0 0 0 0 0 0 0 0 4 116
310 527 721 974 1284 1529 1688 1775 1851 1940 2055 2156 2276 2424 2529 2573 2560
2522 2459 2364 2250 2127 1999 1874 1760 1649 1549 1460 1372 1280 1193 1109 1036
984 960
0 0 0 0 0 0 0 0 0 0 0 0 0 0 0 0 0 0 0 0 0 0 0 0 0 0 0 0 0 0 0 0 0 0 0 0 4 113
299 510 653 862 1151 1393 1591 1713 1784 1877 1970 2069 2193 2319 2412 2438 2446
2449 2435 2379 2297 2194 2069 1922 1780 1648 1538 1454 1371 1282 1198 1113 1040
991 960
0 0 0 0 0 0 0 0 0 0 0 0 0 0 0 0 0 0 0 0 0 0 0 0 0 0 0 0 0 0 0 0 0 0 0 0 3 107
289 480 594 743 960 1197 1390 1552 1724 1857 1939 2019 2113 2221 2266 2265 2246
2233 2242 2241 2206 2143 2056 1944 1805 1657 1525 1420 1344 1266 1189 1109 1039
997 960
0 0 0 0 0 0 0 0 0 0 0 0 0 0 0 0 0 0 0 0 0 0 0 0 0 0 0 0 0 0 0 0 0 0 0 0 3 124
334 527 675 833 1024 1252 1441 1651 1857 2022 2154 2248 2295 2306 2338 2345 2320
2269 2247 2243 2239 2191 2112 2015 1888 1730 1582 1447 1357 1276 1196 1116 1043
984 960
0 0 0 0 0 0 0 0 0 0 0 0 0 0 0 0 0 0 0 0 0 0 0 0 0 0 0 0 0 0 0 0 0 0 0 0 5 160
390 572 768 916 1089 1305 1573 1821 2041 2245 2388 2435 2425 2404 2413 2431 2409
2354 2298 2276 2265 2231 2158 2060 1939 1785 1625 1478 1371 1288 1205 1122 1045
985 960
0 0 0 0 0 0 0 0 0 0 0 0 0 0 0 0 0 0 0 0 0 0 0 0 0 0 0 0 0 0 0 0 0 0 0 0 4 195
432 628 839 969 1143 1402 1703 1991 2216 2373 2490 2538 2521 2479 2470 2487 2470
2422 2348 2310 2287 2263 2196 2099 1984 1833 1662 1505 1382 1296 1212 1127 1049
986 960
0 0 0 0 0 0 0 0 0 0 0 0 0 0 0 0 0 0 0 0 0 0 0 0 0 0 0 0 0 0 0 0 0 0 0 0 5 169
388 571 754 915 1095 1346 1596 1857 2084 2265 2407 2474 2474 2454 2462 2477 2460
2409 2345 2313 2294 2254 2179 2080 1962 1808 1644 1494 1381 1296 1212 1127 1049
987 960
0 0 0 0 0 0 0 0 0 0 0 0 0 0 0 0 0 0 0 0 0 0 0 0 0 0 0 0 0 0 0 0 0 0 0 0 5 141
343 511 669 860 1046 1290 1488 1721 1952 2156 2322 2408 2427 2428 2452 2466 2449
2394 2340 2315 2299 2244 2161 2061 1937 1780 1625 1481 1378 1295 1211 1126 1049
988 960
0 0 0 0 0 0 0 0 0 0 0 0 0 0 0 0 0 0 0 0 0 0 0 0 0 0 0 0 0 0 0 0 0 0 0 0 3 108
289 444 588 741 963 1225 1439 1620 1833 2019 2126 2198 2288 2388 2431 2435 2406
2365 2340 2333 2290 2214 2124 2014 1873 1721 1575 1456 1371 1287 1205 1120 1045
986 960
0 0 0 0 0 0 0 0 0 0 0 0 0 0 0 0 0 0 0 0 0 0 0 0 0 0 0 0 0 0 0 0 0 0 0 0 3 114
304 498 661 825 1117 1390 1640 1808 1918 2030 2093 2181 2323 2442 2525 2521 2496
2481 2473 2421 2341 2249 2134 1992 1842 1696 1566 1471 1385 1295 1207 1120 1045
986 960
0 0 0 0 0 0 0 0 0 0 0 0 0 0 0 0 0 0 0 0 0 0 0 0 0 0 0 0 0 0 0 0 0 0 0 0 4 118
313 521 726 955 1268 1527 1714 1823 1918 2017 2117 2212 2341 2486 2586 2615 2586
2537 2479 2384 2272 2154 2032 1908 1791 1674 1563 1469 1380 1287 1197 1113 1039
982 960
0 0 0 0 0 0 0 0 0 0 0 0 0 0 0 0 0 0 0 0 0 0 0 0 0 0 0 0 0 0 0 0 0 0 0 0 4 120
320 541 788 1084 1417 1662 1785 1836 1917 2003 2139 2242 2358 2528 2646 2708
2673 2592 2483 2346 2201 2058 1928 1824 1737 1649 1559 1465 1373 1277 1187 1104
1032 977 960
0 0 0 0 0 0 0 0 0 0 0 0 0 0 0 0 0 0 0 0 0 0 0 0 0 0 0 0 0 0 0 0 0 0 0 0 4 116
310 527 721 974 1284 1529 1688 1775 1851 1940 2055 2156 2276 2424 2529 2573 2560
2522 2459 2364 2250 2127 1999 1874 1760 1649 1549 1460 1372 1280 1193 1109 1036
984 960
0 0 0 0 0 0 0 0 0 0 0 0 0 0 0 0 0 0 0 0 0 0 0 0 0 0 0 0 0 0 0 0 0 0 0 0 4 113
299 510 653 862 1151 1393 1591 1713 1784 1877 1970 2069 2193 2319 2412 2438 2446
2449 2435 2379 2297 2194 2069 1922 1780 1648 1538 1454 1371 1282 1198 1113 1040
991 960
0 0 0 0 0 0 0 0 0 0 0 0 0 0 0 0 0 0 0 0 0 0 0 0 0 0 0 0 0 0 0 0 0 0 0 0 3 107
289 480 594 743 960 1197 1390 1552 1724 1857 1939 2019 2113 2221 2266 2265 2246
2233 2242 2241 2206 2143 2056 1944 1805 1657 1525 1420 1344 1266 1189 1109 1039
997 960
0 0 0 0 0 0 0 0 0 0 0 0 0 0 0 0 0 0 0 0 0 0 0 0 0 0 0 0 0 0 0 0 0 0 0 0 3 124
334 527 675 833 1024 1252 1441 1651 1857 2022 2154 2248 2295 2306 2338 2345 2320
2269 2247 2243 2239 2191 2112 2015 1888 1730 1582 1447 1357 1276 1196 1116 1043
984 960
0 0 0 0 0 0 0 0 0 0 0 0 0 0 0 0 0 0 0 0 0 0 0 0 0 0 0 0 0 0 0 0 0 0 0 0 5 160
390 572 768 916 1089 1305 1573 1821 2041 2245 2388 2435 2425 2404 2413 2431 2409
2354 2298 2276 2265 2231 2158 2060 1939 1785 1625 1478 1371 1288 1205 1122 1045
985 960
0 0 0 0 0 0 0 0 0 0 0 0 0 0 0 0 0 0 0 0 0 0 0 0 0 0 0 0 0 0 0 0 0 0 0 0 4 195
432 628 839 969 1143 1402 1703 1991 2216 2373 2490 2538 2521 2479 2470 2487 2470
2422 2348 2310 2287 2263 2196 2099 1984 1833 1662 1505 1382 1296 1212 1127 1049
986 960
0 0 0 0 0 0 0 0 0 0 0 0 0 0 0 0 0 0 0 0 0 0 0 0 0 0 0 0 0 0 0 0 0 0 0 0 5 169
388 571 754 915 1095 1346 1596 1857 2084 2265 2407 2474 2474 2454 2462 2477 2460
2409 2345 2313 2294 2254 2179 2080 1962 1808 1644 1494 1381 1296 1212 1127 1049
987 960
0 0 0 0 0 0 0 0 0 0 0 0 0 0 0 0 0 0 0 0 0 0 0 0 0 0 0 0 0 0 0 0 0 0 0 0 5 141
343 511 669 860 1046 1290 1488 1721 1952 2156 2322 2408 2427 2428 2452 2466 2449
2394 2340 2315 2299 2244 2161 2061 1937 1780 1625 1481 1378 1295 1211 1126 1049
988 960
0 0 0 0 0 0 0 0 0 0 0 0 0 0 0 0 0 0 0 0 0 0 0 0 0 0 0 0 0 0 0 0 0 0 0 0 3 108
289 444 588 741 963 1225 1439 1620 1833 2019 2126 2198 2288 2388 2431 2435 2406
2365 2340 2333 2290 2214 2124 2014 1873 1721 1575 1456 1371 1287 1205 1120 1045
986 960
0 0 0 0 0 0 0 0 0 0 0 0 0 0 0 0 0 0 0 0 0 0 0 0 0 0 0 0 0 0 0 0 0 0 0 0 3 114
304 498 661 825 1117 1390 1640 1808 1918 2030 2093 2181 2323 2442 2525 2521 2496
2481 2473 2421 2341 2249 2134 1992 1842 1696 1566 1471 1385 1295 1207 1120 1045
986 960
0 0 0 0 0 0 0 0 0 0 0 0 0 0 0 0 0 0 0 0 0 0 0 0 0 0 0 0 0 0 0 0 0 0 0 0 4 118
313 521 726 955 1268 1527 1714 1823 1918 2017 2117 2212 2341 2486 2586 2615 2586
2537 2479 2384 2272 2154 2032 1908 1791 1674 1563 1469 1380 1287 1197 1113 1039
982 960
0 0 0 0 0 0 0 0 0 0 0 0 0 0 0 0 0 0 0 0 0 0 0 0 0 0 0 0 0 0 0 0 0 0 0 0 4 120
320 541 788 1084 1417 1662 1785 1836 1917 2003 2139 2242 2358 2528 2646 2708
2673 2592 2483 2346 2201 2058 1928 1824 1737 1649 1559 1465 1373 1277 1187 1104
1032 977 960

