IESNA:LM-63-2002
[TEST]253p132
[TESTLAB]METALUX LABORITORIES
[ISSUEDATE]07/30/07
[MANUFAC]COOPER LIGHTING - SHAPER
[LUMCAT]1240-OB-36-CFL/3/50 
[LUMINAIRE]SHAPER 36 INCH 1240 SERIES DIRECT/INDIRECT INDOOR PENDANT FIXTURE
[LAMP]THREE - F50BX - 50 WATTS
[MORE]THREE GX24 T4 COMPACT FLUORESCENT LAMPS 
TILT=NONE
3 4800 1 73 37 1 1 -3 -3 0
1 1 189
0 2.5 5 7.5 10 12.5 15 17.5 20 22.5 25 27.5 30 32.5 35 37.5 40 42.5 45 47.5 50 
52.5 55 57.5 60 62.5 65 67.5 70 72.5 75 77.5 80 82.5 85 87.5 90 92.5 95 97.5 100 
102.5 105 107.5 110 112.5 115 117.5 120 122.5 125 127.5 130 132.5 135 137.5 140 
142.5 145 147.5 150 152.5 155 157.5 160 162.5 165 167.5 170 172.5 175 177.5 180 
0 10 20 30 40 50 60 70 80 90 100 110 120 130 140 150 160 170 180 190 200 210 220 
230 240 250 260 270 280 290 300 310 320 330 340 350 360
0 0 0 0 0 0 0 0 0 0 0 0 0 0 0 0 0 0 0 0 0 0 0 0 0 0 0 0 0 0 0 0 0 0 0 0 4 127
353 615 937 1316 1726 2040 2205 2275 2378 2489 2659 2799 2956 3152 3320 3387
3323 3214 3082 2913 2729 2544 2381 2254 2139 2018 1893 1767 1633 1521 1408 1311
1235 1185 1170
0 0 0 0 0 0 0 0 0 0 0 0 0 0 0 0 0 0 0 0 0 0 0 0 0 0 0 0 0 0 0 0 0 0 0 0 4 126
349 607 857 1176 1563 1883 2098 2209 2300 2413 2561 2699 2847 3028 3173 3213
3183 3131 3061 2943 2796 2632 2472 2318 2169 2022 1889 1770 1644 1530 1416 1316
1237 1193 1170
0 0 0 0 0 0 0 0 0 0 0 0 0 0 0 0 0 0 0 0 0 0 0 0 0 0 0 0 0 0 0 0 0 0 0 0 3 124
344 599 775 1037 1399 1725 1989 2142 2220 2335 2462 2599 2739 2905 3025 3038
3042 3048 3039 2970 2861 2720 2563 2382 2200 2024 1885 1772 1655 1538 1423 1321
1240 1200 1170
0 0 0 0 0 0 0 0 0 0 0 0 0 0 0 0 0 0 0 0 0 0 0 0 0 0 0 0 0 0 0 0 0 0 0 0 3 120
342 568 711 892 1187 1486 1735 1942 2139 2308 2422 2497 2616 2769 2822 2820 2788
2774 2793 2797 2761 2670 2545 2404 2228 2039 1863 1732 1628 1522 1415 1316 1237
1206 1170
0 0 0 0 0 0 0 0 0 0 0 0 0 0 0 0 0 0 0 0 0 0 0 0 0 0 0 0 0 0 0 0 0 0 0 0 4 140
392 621 794 1002 1263 1542 1770 2036 2300 2513 2655 2770 2819 2835 2884 2892
2861 2797 2771 2770 2765 2708 2597 2458 2296 2101 1903 1734 1622 1518 1412 1313
1233 1184 1170
0 0 0 0 0 0 0 0 0 0 0 0 0 0 0 0 0 0 0 0 0 0 0 0 0 0 0 0 0 0 0 0 0 0 0 0 4 177
459 673 907 1106 1331 1596 1917 2237 2514 2758 2933 2980 2962 2942 2967 2995
2973 2895 2821 2799 2784 2746 2644 2503 2342 2153 1942 1756 1627 1518 1411 1311
1231 1183 1170
0 0 0 0 0 0 0 0 0 0 0 0 0 0 0 0 0 0 0 0 0 0 0 0 0 0 0 0 0 0 0 0 0 0 0 0 5 222
510 736 999 1158 1380 1712 2067 2422 2710 2897 3039 3091 3072 3025 3029 3054
3039 2968 2866 2820 2793 2769 2678 2538 2380 2195 1975 1771 1626 1514 1407 1308
1229 1183 1170
0 0 0 0 0 0 0 0 0 0 0 0 0 0 0 0 0 0 0 0 0 0 0 0 0 0 0 0 0 0 0 0 0 0 0 0 5 193
466 677 897 1095 1329 1643 1937 2254 2543 2760 2921 2999 3000 2978 2999 3019
2997 2922 2840 2807 2786 2748 2645 2506 2347 2159 1947 1756 1623 1516 1410 1311
1230 1184 1170
0 0 0 0 0 0 0 0 0 0 0 0 0 0 0 0 0 0 0 0 0 0 0 0 0 0 0 0 0 0 0 0 0 0 0 0 4 162
420 617 794 1030 1276 1571 1806 2085 2375 2620 2801 2906 2928 2930 2967 2983
2954 2875 2813 2791 2779 2725 2610 2472 2312 2122 1918 1740 1620 1517 1411 1313
1231 1184 1170
0 0 0 0 0 0 0 0 0 0 0 0 0 0 0 0 0 0 0 0 0 0 0 0 0 0 0 0 0 0 0 0 0 0 0 0 5 108
322 506 668 855 1148 1477 1732 1956 2207 2431 2557 2622 2736 2878 2933 2929 2877
2825 2813 2815 2782 2685 2564 2414 2250 2054 1868 1724 1619 1514 1409 1310 1230
1182 1170
0 0 0 0 0 0 0 0 0 0 0 0 0 0 0 0 0 0 0 0 0 0 0 0 0 0 0 0 0 0 0 0 0 0 0 0 5 111
328 554 747 950 1322 1672 1973 2177 2301 2417 2498 2604 2762 2928 3028 3004 2971
2960 2960 2912 2818 2696 2549 2382 2193 2006 1848 1737 1629 1519 1411 1311 1231
1182 1170
0 0 0 0 0 0 0 0 0 0 0 0 0 0 0 0 0 0 0 0 0 0 0 0 0 0 0 0 0 0 0 0 0 0 0 0 5 119
342 585 842 1133 1525 1857 2090 2226 2341 2454 2579 2702 2860 3041 3175 3196
3148 3088 3022 2913 2774 2620 2466 2319 2166 2013 1871 1752 1632 1521 1410 1312
1233 1184 1170
0 0 0 0 0 0 0 0 0 0 0 0 0 0 0 0 0 0 0 0 0 0 0 0 0 0 0 0 0 0 0 0 0 0 0 0 4 127
353 615 937 1316 1726 2040 2205 2275 2378 2489 2659 2799 2956 3152 3320 3387
3323 3214 3082 2913 2729 2544 2381 2254 2139 2018 1893 1767 1633 1521 1408 1311
1235 1185 1170
0 0 0 0 0 0 0 0 0 0 0 0 0 0 0 0 0 0 0 0 0 0 0 0 0 0 0 0 0 0 0 0 0 0 0 0 4 126
349 607 857 1176 1563 1883 2098 2209 2300 2413 2561 2699 2847 3028 3173 3213
3183 3131 3061 2943 2796 2632 2472 2318 2169 2022 1889 1770 1644 1530 1416 1316
1237 1193 1170
0 0 0 0 0 0 0 0 0 0 0 0 0 0 0 0 0 0 0 0 0 0 0 0 0 0 0 0 0 0 0 0 0 0 0 0 3 124
344 599 775 1037 1399 1725 1989 2142 2220 2335 2462 2599 2739 2905 3025 3038
3042 3048 3039 2970 2861 2720 2563 2382 2200 2024 1885 1772 1655 1538 1423 1321
1240 1200 1170
0 0 0 0 0 0 0 0 0 0 0 0 0 0 0 0 0 0 0 0 0 0 0 0 0 0 0 0 0 0 0 0 0 0 0 0 3 120
342 568 711 892 1187 1486 1735 1942 2139 2308 2422 2497 2616 2769 2822 2820 2788
2774 2793 2797 2761 2670 2545 2404 2228 2039 1863 1732 1628 1522 1415 1316 1237
1206 1170
0 0 0 0 0 0 0 0 0 0 0 0 0 0 0 0 0 0 0 0 0 0 0 0 0 0 0 0 0 0 0 0 0 0 0 0 4 140
392 621 794 1002 1263 1542 1770 2036 2300 2513 2655 2770 2819 2835 2884 2892
2861 2797 2771 2770 2765 2708 2597 2458 2296 2101 1903 1734 1622 1518 1412 1313
1233 1184 1170
0 0 0 0 0 0 0 0 0 0 0 0 0 0 0 0 0 0 0 0 0 0 0 0 0 0 0 0 0 0 0 0 0 0 0 0 4 177
459 673 907 1106 1331 1596 1917 2237 2514 2758 2933 2980 2962 2942 2967 2995
2973 2895 2821 2799 2784 2746 2644 2503 2342 2153 1942 1756 1627 1518 1411 1311
1231 1183 1170
0 0 0 0 0 0 0 0 0 0 0 0 0 0 0 0 0 0 0 0 0 0 0 0 0 0 0 0 0 0 0 0 0 0 0 0 5 222
510 736 999 1158 1380 1712 2067 2422 2710 2897 3039 3091 3072 3025 3029 3054
3039 2968 2866 2820 2793 2769 2678 2538 2380 2195 1975 1771 1626 1514 1407 1308
1229 1183 1170
0 0 0 0 0 0 0 0 0 0 0 0 0 0 0 0 0 0 0 0 0 0 0 0 0 0 0 0 0 0 0 0 0 0 0 0 5 193
466 677 897 1095 1329 1643 1937 2254 2543 2760 2921 2999 3000 2978 2999 3019
2997 2922 2840 2807 2786 2748 2645 2506 2347 2159 1947 1756 1623 1516 1410 1311
1230 1184 1170
0 0 0 0 0 0 0 0 0 0 0 0 0 0 0 0 0 0 0 0 0 0 0 0 0 0 0 0 0 0 0 0 0 0 0 0 4 162
420 617 794 1030 1276 1571 1806 2085 2375 2620 2801 2906 2928 2930 2967 2983
2954 2875 2813 2791 2779 2725 2610 2472 2312 2122 1918 1740 1620 1517 1411 1313
1231 1184 1170
0 0 0 0 0 0 0 0 0 0 0 0 0 0 0 0 0 0 0 0 0 0 0 0 0 0 0 0 0 0 0 0 0 0 0 0 5 108
322 506 668 855 1148 1477 1732 1956 2207 2431 2557 2622 2736 2878 2933 2929 2877
2825 2813 2815 2782 2685 2564 2414 2250 2054 1868 1724 1619 1514 1409 1310 1230
1182 1170
0 0 0 0 0 0 0 0 0 0 0 0 0 0 0 0 0 0 0 0 0 0 0 0 0 0 0 0 0 0 0 0 0 0 0 0 5 111
328 554 747 950 1322 1672 1973 2177 2301 2417 2498 2604 2762 2928 3028 3004 2971
2960 2960 2912 2818 2696 2549 2382 2193 2006 1848 1737 1629 1519 1411 1311 1231
1182 1170
0 0 0 0 0 0 0 0 0 0 0 0 0 0 0 0 0 0 0 0 0 0 0 0 0 0 0 0 0 0 0 0 0 0 0 0 5 119
342 585 842 1133 1525 1857 2090 2226 2341 2454 2579 2702 2860 3041 3175 3196
3148 3088 3022 2913 2774 2620 2466 2319 2166 2013 1871 1752 1632 1521 1410 1312
1233 1184 1170
0 0 0 0 0 0 0 0 0 0 0 0 0 0 0 0 0 0 0 0 0 0 0 0 0 0 0 0 0 0 0 0 0 0 0 0 4 127
353 615 937 1316 1726 2040 2205 2275 2378 2489 2659 2799 2956 3152 3320 3387
3323 3214 3082 2913 2729 2544 2381 2254 2139 2018 1893 1767 1633 1521 1408 1311
1235 1185 1170
0 0 0 0 0 0 0 0 0 0 0 0 0 0 0 0 0 0 0 0 0 0 0 0 0 0 0 0 0 0 0 0 0 0 0 0 4 126
349 607 857 1176 1563 1883 2098 2209 2300 2413 2561 2699 2847 3028 3173 3213
3183 3131 3061 2943 2796 2632 2472 2318 2169 2022 1889 1770 1644 1530 1416 1316
1237 1193 1170
0 0 0 0 0 0 0 0 0 0 0 0 0 0 0 0 0 0 0 0 0 0 0 0 0 0 0 0 0 0 0 0 0 0 0 0 3 124
344 599 775 1037 1399 1725 1989 2142 2220 2335 2462 2599 2739 2905 3025 3038
3042 3048 3039 2970 2861 2720 2563 2382 2200 2024 1885 1772 1655 1538 1423 1321
1240 1200 1170
0 0 0 0 0 0 0 0 0 0 0 0 0 0 0 0 0 0 0 0 0 0 0 0 0 0 0 0 0 0 0 0 0 0 0 0 3 120
342 568 711 892 1187 1486 1735 1942 2139 2308 2422 2497 2616 2769 2822 2820 2788
2774 2793 2797 2761 2670 2545 2404 2228 2039 1863 1732 1628 1522 1415 1316 1237
1206 1170
0 0 0 0 0 0 0 0 0 0 0 0 0 0 0 0 0 0 0 0 0 0 0 0 0 0 0 0 0 0 0 0 0 0 0 0 4 140
392 621 794 1002 1263 1542 1770 2036 2300 2513 2655 2770 2819 2835 2884 2892
2861 2797 2771 2770 2765 2708 2597 2458 2296 2101 1903 1734 1622 1518 1412 1313
1233 1184 1170
0 0 0 0 0 0 0 0 0 0 0 0 0 0 0 0 0 0 0 0 0 0 0 0 0 0 0 0 0 0 0 0 0 0 0 0 4 177
459 673 907 1106 1331 1596 1917 2237 2514 2758 2933 2980 2962 2942 2967 2995
2973 2895 2821 2799 2784 2746 2644 2503 2342 2153 1942 1756 1627 1518 1411 1311
1231 1183 1170
0 0 0 0 0 0 0 0 0 0 0 0 0 0 0 0 0 0 0 0 0 0 0 0 0 0 0 0 0 0 0 0 0 0 0 0 5 222
510 736 999 1158 1380 1712 2067 2422 2710 2897 3039 3091 3072 3025 3029 3054
3039 2968 2866 2820 2793 2769 2678 2538 2380 2195 1975 1771 1626 1514 1407 1308
1229 1183 1170
0 0 0 0 0 0 0 0 0 0 0 0 0 0 0 0 0 0 0 0 0 0 0 0 0 0 0 0 0 0 0 0 0 0 0 0 5 193
466 677 897 1095 1329 1643 1937 2254 2543 2760 2921 2999 3000 2978 2999 3019
2997 2922 2840 2807 2786 2748 2645 2506 2347 2159 1947 1756 1623 1516 1410 1311
1230 1184 1170
0 0 0 0 0 0 0 0 0 0 0 0 0 0 0 0 0 0 0 0 0 0 0 0 0 0 0 0 0 0 0 0 0 0 0 0 4 162
420 617 794 1030 1276 1571 1806 2085 2375 2620 2801 2906 2928 2930 2967 2983
2954 2875 2813 2791 2779 2725 2610 2472 2312 2122 1918 1740 1620 1517 1411 1313
1231 1184 1170
0 0 0 0 0 0 0 0 0 0 0 0 0 0 0 0 0 0 0 0 0 0 0 0 0 0 0 0 0 0 0 0 0 0 0 0 5 108
322 506 668 855 1148 1477 1732 1956 2207 2431 2557 2622 2736 2878 2933 2929 2877
2825 2813 2815 2782 2685 2564 2414 2250 2054 1868 1724 1619 1514 1409 1310 1230
1182 1170
0 0 0 0 0 0 0 0 0 0 0 0 0 0 0 0 0 0 0 0 0 0 0 0 0 0 0 0 0 0 0 0 0 0 0 0 5 111
328 554 747 950 1322 1672 1973 2177 2301 2417 2498 2604 2762 2928 3028 3004 2971
2960 2960 2912 2818 2696 2549 2382 2193 2006 1848 1737 1629 1519 1411 1311 1231
1182 1170
0 0 0 0 0 0 0 0 0 0 0 0 0 0 0 0 0 0 0 0 0 0 0 0 0 0 0 0 0 0 0 0 0 0 0 0 5 119
342 585 842 1133 1525 1857 2090 2226 2341 2454 2579 2702 2860 3041 3175 3196
3148 3088 3022 2913 2774 2620 2466 2319 2166 2013 1871 1752 1632 1521 1410 1312
1233 1184 1170
0 0 0 0 0 0 0 0 0 0 0 0 0 0 0 0 0 0 0 0 0 0 0 0 0 0 0 0 0 0 0 0 0 0 0 0 4 127
353 615 937 1316 1726 2040 2205 2275 2378 2489 2659 2799 2956 3152 3320 3387
3323 3214 3082 2913 2729 2544 2381 2254 2139 2018 1893 1767 1633 1521 1408 1311
1235 1185 1170

