IESNA:LM-63-2002
[TEST]253P174
[TESTLAB]METALUX LABORITORIES
[ISSUEDATE]11/16/07
[MANUFAC]COOPER LIGHTING - SHAPER
[LUMCAT]1240-OB-26-CFL/3/27
[LUMINAIRE]SHAPER 26 INCH 1240 SERIES DIRECT/INDIRECT INDOOR PENDANT FIXTURE
[LAMP]THREE - FT24DL - 1800 LUMENS - 24 WATTS
[MORE]THREE GX24 T4 COMPACT FLUORESCENT LAMPS 
[BALLAST]SWB-26-2-120
TILT=NONE
3 1800 1 73 25 1 1 -2.166667 -2.166667 0.000000
1.000 1 26
0 2.5 5 7.5 10 12.5 15 17.5 20 22.5 25 27.5 30 32.5 35 37.5 40 42.5 45 47.5 50 
52.5 55 57.5 60 62.5 65 67.5 70 72.5 75 77.5 80 82.5 85 87.5 90 92.5 95 97.5 100 
102.5 105 107.5 110 112.5 115 117.5 120 122.5 125 127.5 130 132.5 135 137.5 140 
142.5 145 147.5 150 152.5 155 157.5 160 162.5 165 167.5 170 172.5 175 177.5 180 
0 20 30 40 60 80 90 100 120 140 150 160 180 200 210 220 240 260 270 280 300 320 
330 340 360 
3 2 2 1 2 1 1 3 4 3 4 8 7 5 15 18 15 17 19 23 28 34 42 51 59 68 78 86 93 98 101 
98 78 32 1 0 4 35 112 224 350 476 607 689 743 760 803 878 932 976 1012 1042 1062 
1077 1111 1140 1163 1163 1148 1133 1100 1051 990 923 859 781 712 641 589 545 509 
480 465 
3 1 1 2 2 1 0 2 3 1 13 19 21 27 29 32 38 45 50 54 60 69 76 83 90 94 96 97 96 96 
98 97 95 65 18 0 1 35 117 209 294 380 494 605 706 779 818 840 839 860 903 947 
978 1015 1037 1058 1071 1079 1084 1084 1068 1030 976 918 855 791 728 660 599 546 
507 480 465 
3 1 2 2 1 0 2 4 4 14 20 23 28 35 38 43 51 57 64 69 76 85 91 100 108 112 118 123 
128 133 138 138 131 85 20 0 1 42 124 222 292 360 436 544 656 759 825 863 875 870 
880 903 949 1005 1047 1063 1079 1091 1087 1064 1035 1014 970 912 849 787 727 663 
602 543 505 478 465 
3 2 0 2 3 2 1 4 5 19 24 28 34 40 45 51 58 66 73 81 89 96 104 113 120 127 131 138 
143 149 155 160 153 86 10 0 5 76 176 276 342 403 470 566 668 776 883 936 973 969 
961 981 1019 1067 1112 1140 1142 1132 1108 1076 1039 1007 971 913 853 791 729 
669 604 546 504 478 465 
3 0 2 1 2 1 1 3 5 19 28 31 38 45 50 56 64 72 81 89 98 106 115 123 130 135 141 
146 153 159 166 171 146 71 0 1 13 110 234 321 370 412 489 585 698 797 894 999 
1057 1086 1104 1128 1155 1182 1200 1208 1190 1154 1124 1089 1047 1009 976 925 
862 800 733 672 606 545 501 476 465 
3 0 2 1 3 2 1 2 6 17 22 28 34 40 44 50 56 63 70 78 86 93 100 109 115 121 126 131 
137 142 147 150 137 74 3 4 2 49 147 250 314 380 453 547 642 743 851 916 944 944 
940 963 1012 1057 1096 1113 1114 1112 1090 1064 1028 1005 972 915 854 787 723 
661 601 544 504 478 465 
3 0 3 3 1 1 1 7 3 12 18 21 25 30 36 42 46 53 59 66 71 79 87 93 99 105 109 114 
117 121 124 125 117 68 6 3 0 35 117 206 272 345 430 540 645 746 830 867 866 868 
884 918 966 1018 1047 1058 1066 1072 1071 1051 1034 1005 957 906 848 787 720 654 
596 542 505 479 465 
3 1 1 1 1 2 1 3 6 1 13 16 19 23 26 29 34 41 46 51 56 62 70 76 83 87 89 91 92 92 
94 92 85 53 6 0 0 33 110 199 284 377 499 613 736 826 859 864 865 895 941 995 
1024 1045 1066 1080 1086 1087 1091 1092 1061 1016 958 902 846 788 716 650 592 
544 509 480 465 
3 2 2 1 2 1 1 3 4 3 4 8 7 5 15 18 15 17 19 23 28 34 42 51 59 68 78 86 93 98 101 
98 78 32 1 0 4 35 112 224 350 476 607 689 743 760 803 878 932 976 1012 1042 1062 
1077 1111 1140 1163 1163 1148 1133 1100 1051 990 923 859 781 712 641 589 545 509 
480 465 
3 1 1 2 2 1 0 2 3 1 13 19 21 27 29 32 38 45 50 54 60 69 76 83 90 94 96 97 96 96 
98 97 95 65 18 0 1 35 117 209 294 380 494 605 706 779 818 840 839 860 903 947 
978 1015 1037 1058 1071 1079 1084 1084 1068 1030 976 918 855 791 728 660 599 546 
507 480 465 
3 1 2 2 1 0 2 4 4 14 20 23 28 35 38 43 51 57 64 69 76 85 91 100 108 112 118 123 
128 133 138 138 131 85 20 0 1 42 124 222 292 360 436 544 656 759 825 863 875 870 
880 903 949 1005 1047 1063 1079 1091 1087 1064 1035 1014 970 912 849 787 727 663 
602 543 505 478 465 
3 2 0 2 3 2 1 4 5 19 24 28 34 40 45 51 58 66 73 81 89 96 104 113 120 127 131 138 
143 149 155 160 153 86 10 0 5 76 176 276 342 403 470 566 668 776 883 936 973 969 
961 981 1019 1067 1112 1140 1142 1132 1108 1076 1039 1007 971 913 853 791 729 
669 604 546 504 478 465 
3 0 2 1 2 1 1 3 5 19 28 31 38 45 50 56 64 72 81 89 98 106 115 123 130 135 141 
146 153 159 166 171 146 71 0 1 13 110 234 321 370 412 489 585 698 797 894 999 
1057 1086 1104 1128 1155 1182 1200 1208 1190 1154 1124 1089 1047 1009 976 925 
862 800 733 672 606 545 501 476 465 
3 0 2 1 3 2 1 2 6 17 22 28 34 40 44 50 56 63 70 78 86 93 100 109 115 121 126 131 
137 142 147 150 137 74 3 4 2 49 147 250 314 380 453 547 642 743 851 916 944 944 
940 963 1012 1057 1096 1113 1114 1112 1090 1064 1028 1005 972 915 854 787 723 
661 601 544 504 478 465 
3 0 3 3 1 1 1 7 3 12 18 21 25 30 36 42 46 53 59 66 71 79 87 93 99 105 109 114 
117 121 124 125 117 68 6 3 0 35 117 206 272 345 430 540 645 746 830 867 866 868 
884 918 966 1018 1047 1058 1066 1072 1071 1051 1034 1005 957 906 848 787 720 654 
596 542 505 479 465 
3 1 1 1 1 2 1 3 6 1 13 16 19 23 26 29 34 41 46 51 56 62 70 76 83 87 89 91 92 92 
94 92 85 53 6 0 0 33 110 199 284 377 499 613 736 826 859 864 865 895 941 995 
1024 1045 1066 1080 1086 1087 1091 1092 1061 1016 958 902 846 788 716 650 592 
544 509 480 465 
3 2 2 1 2 1 1 3 4 3 4 8 7 5 15 18 15 17 19 23 28 34 42 51 59 68 78 86 93 98 101 
98 78 32 1 0 4 35 112 224 350 476 607 689 743 760 803 878 932 976 1012 1042 1062 
1077 1111 1140 1163 1163 1148 1133 1100 1051 990 923 859 781 712 641 589 545 509 
480 465 
3 1 1 2 2 1 0 2 3 1 13 19 21 27 29 32 38 45 50 54 60 69 76 83 90 94 96 97 96 96 
98 97 95 65 18 0 1 35 117 209 294 380 494 605 706 779 818 840 839 860 903 947 
978 1015 1037 1058 1071 1079 1084 1084 1068 1030 976 918 855 791 728 660 599 546 
507 480 465 
3 1 2 2 1 0 2 4 4 14 20 23 28 35 38 43 51 57 64 69 76 85 91 100 108 112 118 123 
128 133 138 138 131 85 20 0 1 42 124 222 292 360 436 544 656 759 825 863 875 870 
880 903 949 1005 1047 1063 1079 1091 1087 1064 1035 1014 970 912 849 787 727 663 
602 543 505 478 465 
3 2 0 2 3 2 1 4 5 19 24 28 34 40 45 51 58 66 73 81 89 96 104 113 120 127 131 138 
143 149 155 160 153 86 10 0 5 76 176 276 342 403 470 566 668 776 883 936 973 969 
961 981 1019 1067 1112 1140 1142 1132 1108 1076 1039 1007 971 913 853 791 729 
669 604 546 504 478 465 
3 0 2 1 2 1 1 3 5 19 28 31 38 45 50 56 64 72 81 89 98 106 115 123 130 135 141 
146 153 159 166 171 146 71 0 1 13 110 234 321 370 412 489 585 698 797 894 999 
1057 1086 1104 1128 1155 1182 1200 1208 1190 1154 1124 1089 1047 1009 976 925 
862 800 733 672 606 545 501 476 465 
3 0 2 1 3 2 1 2 6 17 22 28 34 40 44 50 56 63 70 78 86 93 100 109 115 121 126 131 
137 142 147 150 137 74 3 4 2 49 147 250 314 380 453 547 642 743 851 916 944 944 
940 963 1012 1057 1096 1113 1114 1112 1090 1064 1028 1005 972 915 854 787 723 
661 601 544 504 478 465 
3 0 3 3 1 1 1 7 3 12 18 21 25 30 36 42 46 53 59 66 71 79 87 93 99 105 109 114 
117 121 124 125 117 68 6 3 0 35 117 206 272 345 430 540 645 746 830 867 866 868 
884 918 966 1018 1047 1058 1066 1072 1071 1051 1034 1005 957 906 848 787 720 654 
596 542 505 479 465 
3 1 1 1 1 2 1 3 6 1 13 16 19 23 26 29 34 41 46 51 56 62 70 76 83 87 89 91 92 92 
94 92 85 53 6 0 0 33 110 199 284 377 499 613 736 826 859 864 865 895 941 995 
1024 1045 1066 1080 1086 1087 1091 1092 1061 1016 958 902 846 788 716 650 592 
544 509 480 465
3 2 2 1 2 1 1 3 4 3 4 8 7 5 15 18 15 17 19 23 28 34 42 51 59 68 78 86 93 98 101 
98 78 32 1 0 4 35 112 224 350 476 607 689 743 760 803 878 932 976 1012 1042 1062 
1077 1111 1140 1163 1163 1148 1133 1100 1051 990 923 859 781 712 641 589 545 509 
480 465

