IESNA:LM-63-2002
[TEST]253p171
[TESTLAB]METALUX LABORITORIES
[ISSUEDATE]10/31/07
[MANUFAC]COOPER LIGHTING - SHAPER
[LUMCAT]1240-OB-36-CFL/6/27
[LUMINAIRE] SHAPER 36 INCH 1240 SERIES DIRECT/INDIRECT INTERIOR TAPERED PENDANT FIXTURE
[MORE][LAMP]SIX - F24BX - 1800 LUMENS - 24 WATTS SIX - GX24 T4
[MORE]COMPACT FLUORESCENT LAMPS
[OTHER]THIS FILE WAS PRORATED FROM TEST NO: 253p171
TILT=NONE
6 1800 1 73 25 1 1 -3 -3 0.1
1 1 99
0 2.5 5 7.5 10 12.5 15 17.5 20 22.5
25 27.5 30 32.5 35 37.5 40 42.5 45 47.5
50 52.5 55 57.5 60 62.5 65 67.5 70 72.5
75 77.5 80 82.5 85 87.5 90 92.5 95 97.5
100 102.5 105 107.5 110 112.5 115 117.5 120 122.5
125 127.5 130 132.5 135 137.5 140 142.5 145 147.5
150 152.5 155 157.5 160 162.5 165 167.5 170 172.5
175 177.5 180
0 20 30 40 60 80 90 100 120 140
150 160 180 200 210 220 240 260 270 280
300 320 330 340 360
3 4 3 4 3 3 4 3 3 3
3 3 2 1 1 1 1 2 1 0
0 1 0 0 1 0 0 0 0 0
0 0 1 0 0 1 4 24 128 273.7
441.7 648 869.7 1068 1238.3 1394.3 1534.9 1670.9 1796 1904.6
2001.1 2089.1 2161.1 2225.7 2266.9 2284 2289.7 2280.6 2270.3 2258.9
2229.1 2166.3 2080.6 1981.1 1874.3 1764.6 1654.3 1544 1440 1353.1
1297.7 1274.9 1268.6
3 4 4 4 4 3 3 4 3 3
3 2 2 1 1 1 1 1 1 1
1 1 0 0 1 1 0 0 0 0
0 0 1 1 0 0 4 27.4 136 278.3
441.1 603.4 766.9 913.1 1050.3 1190.3 1318.3 1457.7 1594.3 1717.1
1811.4 1886.3 1953.1 2025.1 2086.3 2143.4 2188.6 2220 2240.6 2229.1
2184.6 2107.4 2017.1 1921.1 1826.3 1730.3 1630.9 1529.7 1434.9 1353.7
1298.9 1276.6 1268.6
3 4 4 4 4 3 4 3 3 3
2 2 2 2 1 1 1 1 0 0
0 1 0 1 1 0 0 1 0 0
0 1 1 1 1 1 5 28.6 129.1 240
369.1 500 622.3 736 861.7 1000.6 1148.6 1287.4 1421.1 1547.4
1650.9 1738.9 1828 1909.1 1978.3 2037.1 2085.7 2138.9 2172 2171.4
2123.4 2049.1 1966.3 1870.3 1781.1 1690.3 1598.3 1505.7 1416.6 1342.9
1293.7 1272.6 1268.6
3 4 3 4 4 4 3 4 3 3
3 3 1 2 1 1 1 1 1 1
1 1 1 0 1 1 0 0 0 1
1 0 1 1 1 0 5 36.6 149.1 277.7
422.3 564.6 684.6 801.7 928.6 1069.1 1213.1 1352.6 1461.7 1568
1673.1 1766.9 1848 1917.7 1973.7 2025.7 2073.7 2102.9 2111.4 2092
2050.9 1981.1 1900 1812 1724 1638.3 1554.3 1471.4 1394.3 1330.3
1289.7 1269.7 1268.6
3 4 3 3 3 3 3 3 3 3
3 2 2 2 1 1 1 2 1 1
1 1 0 0 0 0 0 0 0 0
0 0 1 0 0 0 4 53.1 181.1 337.1
479.4 627.4 773.7 921.7 1066.9 1208 1365.1 1537.1 1689.1 1805.7
1940.6 2064 2154.3 2200 2211.4 2205.1 2189.1 2164.6 2134.9 2100.6
2056 1984 1890.3 1789.7 1686.3 1589.7 1506.3 1431.4 1368 1322.3
1288.6 1265.7 1268.6
3 3 3 3 3 3 3 3 3 3
3 3 3 2 1 1 1 2 0 0
0 0 0 0 0 0 0 0 0 0
0 0 0 0 0 0 3 34.9 132 270.3
423.4 578.3 712.6 835.4 974.9 1116 1261.7 1406.9 1511.4 1608
1701.1 1789.7 1872.6 1938.9 1981.1 2026.9 2072.6 2102.9 2112 2093.7
2056.6 1988 1906.9 1818.3 1730.9 1642.3 1558.3 1474.3 1396.6 1331.4
1289.7 1268.6 1268.6
3 3 3 3 3 3 3 3 3 3
3 3 3 1 2 2 0 2 0 0
0 0 0 0 0 0 0 0 0 0
0 0 0 0 0 0 3 20.6 88 203.4
343.4 486.3 616 742.9 881.1 1036 1193.7 1336.6 1458.9 1573.1
1665.1 1752.6 1841.1 1913.7 1975.4 2029.7 2078.9 2132.6 2166.3 2165.7
2122.3 2048.6 1965.1 1871.4 1781.1 1690.3 1599.4 1505.7 1417.7 1344
1293.7 1272 1268.6
3 4 3 3 3 3 3 3 3 3
3 3 3 1 1 0 0 1 0 0
0 0 0 0 0 0 0 0 0 0
0 0 1 0 0 0 3 25.7 112.6 264.6
441.1 606.9 766.3 926.3 1080 1225.7 1360.6 1488.6 1609.1 1721.1
1813.1 1887.4 1946.9 2012 2073.7 2128.6 2174.9 2207.4 2234.9 2225.7
2180.6 2104 2013.7 1917.1 1822.9 1727.4 1628 1526.3 1432 1352
1296.6 1274.3 1268.6
3 4 3 4 3 3 4 3 3 3
3 3 2 1 1 1 1 2 1 0
0 1 0 0 1 0 0 0 0 0
0 0 1 0 0 1 4 24 128 273.7
441.7 648 869.7 1068 1238.3 1394.3 1534.9 1670.9 1796 1904.6
2001.1 2089.1 2161.1 2225.7 2266.9 2284 2289.7 2280.6 2270.3 2258.9
2229.1 2166.3 2080.6 1981.1 1874.3 1764.6 1654.3 1544 1440 1353.1
1297.7 1274.9 1268.6
3 4 4 4 4 3 3 4 3 3
3 2 2 1 1 1 1 1 1 1
1 1 0 0 1 1 0 0 0 0
0 0 1 1 0 0 4 27.4 136 278.3
441.1 603.4 766.9 913.1 1050.3 1190.3 1318.3 1457.7 1594.3 1717.1
1811.4 1886.3 1953.1 2025.1 2086.3 2143.4 2188.6 2220 2240.6 2229.1
2184.6 2107.4 2017.1 1921.1 1826.3 1730.3 1630.9 1529.7 1434.9 1353.7
1298.9 1276.6 1268.6
3 4 4 4 4 3 4 3 3 3
2 2 2 2 1 1 1 1 0 0
0 1 0 1 1 0 0 1 0 0
0 1 1 1 1 1 5 28.6 129.1 240
369.1 500 622.3 736 861.7 1000.6 1148.6 1287.4 1421.1 1547.4
1650.9 1738.9 1828 1909.1 1978.3 2037.1 2085.7 2138.9 2172 2171.4
2123.4 2049.1 1966.3 1870.3 1781.1 1690.3 1598.3 1505.7 1416.6 1342.9
1293.7 1272.6 1268.6
3 4 3 4 4 4 3 4 3 3
3 3 1 2 1 1 1 1 1 1
1 1 1 0 1 1 0 0 0 1
1 0 1 1 1 0 5 36.6 149.1 277.7
422.3 564.6 684.6 801.7 928.6 1069.1 1213.1 1352.6 1461.7 1568
1673.1 1766.9 1848 1917.7 1973.7 2025.7 2073.7 2102.9 2111.4 2092
2050.9 1981.1 1900 1812 1724 1638.3 1554.3 1471.4 1394.3 1330.3
1289.7 1269.7 1268.6
3 4 3 3 3 3 3 3 3 3
3 2 2 2 1 1 1 2 1 1
1 1 0 0 0 0 0 0 0 0
0 0 1 0 0 0 4 53.1 181.1 337.1
479.4 627.4 773.7 921.7 1066.9 1208 1365.1 1537.1 1689.1 1805.7
1940.6 2064 2154.3 2200 2211.4 2205.1 2189.1 2164.6 2134.9 2100.6
2056 1984 1890.3 1789.7 1686.3 1589.7 1506.3 1431.4 1368 1322.3
1288.6 1265.7 1268.6
3 3 3 3 3 3 3 3 3 3
3 3 3 2 1 1 1 2 0 0
0 0 0 0 0 0 0 0 0 0
0 0 0 0 0 0 3 34.9 132 270.3
423.4 578.3 712.6 835.4 974.9 1116 1261.7 1406.9 1511.4 1608
1701.1 1789.7 1872.6 1938.9 1981.1 2026.9 2072.6 2102.9 2112 2093.7
2056.6 1988 1906.9 1818.3 1730.9 1642.3 1558.3 1474.3 1396.6 1331.4
1289.7 1268.6 1268.6
3 3 3 3 3 3 3 3 3 3
3 3 3 1 2 2 0 2 0 0
0 0 0 0 0 0 0 0 0 0
0 0 0 0 0 0 3 20.6 88 203.4
343.4 486.3 616 742.9 881.1 1036 1193.7 1336.6 1458.9 1573.1
1665.1 1752.6 1841.1 1913.7 1975.4 2029.7 2078.9 2132.6 2166.3 2165.7
2122.3 2048.6 1965.1 1871.4 1781.1 1690.3 1599.4 1505.7 1417.7 1344
1293.7 1272 1268.6
3 4 3 3 3 3 3 3 3 3
3 3 3 1 1 0 0 1 0 0
0 0 0 0 0 0 0 0 0 0
0 0 1 0 0 0 3 25.7 112.6 264.6
441.1 606.9 766.3 926.3 1080 1225.7 1360.6 1488.6 1609.1 1721.1
1813.1 1887.4 1946.9 2012 2073.7 2128.6 2174.9 2207.4 2234.9 2225.7
2180.6 2104 2013.7 1917.1 1822.9 1727.4 1628 1526.3 1432 1352
1296.6 1274.3 1268.6
3 4 3 4 3 3 4 3 3 3
3 3 2 1 1 1 1 2 1 0
0 1 0 0 1 0 0 0 0 0
0 0 1 0 0 1 4 24 128 273.7
441.7 648 869.7 1068 1238.3 1394.3 1534.9 1670.9 1796 1904.6
2001.1 2089.1 2161.1 2225.7 2266.9 2284 2289.7 2280.6 2270.3 2258.9
2229.1 2166.3 2080.6 1981.1 1874.3 1764.6 1654.3 1544 1440 1353.1
1297.7 1274.9 1268.6
3 4 4 4 4 3 3 4 3 3
3 2 2 1 1 1 1 1 1 1
1 1 0 0 1 1 0 0 0 0
0 0 1 1 0 0 4 27.4 136 278.3
441.1 603.4 766.9 913.1 1050.3 1190.3 1318.3 1457.7 1594.3 1717.1
1811.4 1886.3 1953.1 2025.1 2086.3 2143.4 2188.6 2220 2240.6 2229.1
2184.6 2107.4 2017.1 1921.1 1826.3 1730.3 1630.9 1529.7 1434.9 1353.7
1298.9 1276.6 1268.6
3 4 4 4 4 3 4 3 3 3
2 2 2 2 1 1 1 1 0 0
0 1 0 1 1 0 0 1 0 0
0 1 1 1 1 1 5 28.6 129.1 240
369.1 500 622.3 736 861.7 1000.6 1148.6 1287.4 1421.1 1547.4
1650.9 1738.9 1828 1909.1 1978.3 2037.1 2085.7 2138.9 2172 2171.4
2123.4 2049.1 1966.3 1870.3 1781.1 1690.3 1598.3 1505.7 1416.6 1342.9
1293.7 1272.6 1268.6
3 4 3 4 4 4 3 4 3 3
3 3 1 2 1 1 1 1 1 1
1 1 1 0 1 1 0 0 0 1
1 0 1 1 1 0 5 36.6 149.1 277.7
422.3 564.6 684.6 801.7 928.6 1069.1 1213.1 1352.6 1461.7 1568
1673.1 1766.9 1848 1917.7 1973.7 2025.7 2073.7 2102.9 2111.4 2092
2050.9 1981.1 1900 1812 1724 1638.3 1554.3 1471.4 1394.3 1330.3
1289.7 1269.7 1268.6
3 4 3 3 3 3 3 3 3 3
3 2 2 2 1 1 1 2 1 1
1 1 0 0 0 0 0 0 0 0
0 0 1 0 0 0 4 53.1 181.1 337.1
479.4 627.4 773.7 921.7 1066.9 1208 1365.1 1537.1 1689.1 1805.7
1940.6 2064 2154.3 2200 2211.4 2205.1 2189.1 2164.6 2134.9 2100.6
2056 1984 1890.3 1789.7 1686.3 1589.7 1506.3 1431.4 1368 1322.3
1288.6 1265.7 1268.6
3 3 3 3 3 3 3 3 3 3
3 3 3 2 1 1 1 2 0 0
0 0 0 0 0 0 0 0 0 0
0 0 0 0 0 0 3 34.9 132 270.3
423.4 578.3 712.6 835.4 974.9 1116 1261.7 1406.9 1511.4 1608
1701.1 1789.7 1872.6 1938.9 1981.1 2026.9 2072.6 2102.9 2112 2093.7
2056.6 1988 1906.9 1818.3 1730.9 1642.3 1558.3 1474.3 1396.6 1331.4
1289.7 1268.6 1268.6
3 3 3 3 3 3 3 3 3 3
3 3 3 1 2 2 0 2 0 0
0 0 0 0 0 0 0 0 0 0
0 0 0 0 0 0 3 20.6 88 203.4
343.4 486.3 616 742.9 881.1 1036 1193.7 1336.6 1458.9 1573.1
1665.1 1752.6 1841.1 1913.7 1975.4 2029.7 2078.9 2132.6 2166.3 2165.7
2122.3 2048.6 1965.1 1871.4 1781.1 1690.3 1599.4 1505.7 1417.7 1344
1293.7 1272 1268.6
3 4 3 3 3 3 3 3 3 3
3 3 3 1 1 0 0 1 0 0
0 0 0 0 0 0 0 0 0 0
0 0 1 0 0 0 3 25.7 112.6 264.6
441.1 606.9 766.3 926.3 1080 1225.7 1360.6 1488.6 1609.1 1721.1
1813.1 1887.4 1946.9 2012 2073.7 2128.6 2174.9 2207.4 2234.9 2225.7
2180.6 2104 2013.7 1917.1 1822.9 1727.4 1628 1526.3 1432 1352
1296.6 1274.3 1268.6
3 4 3 4 3 3 4 3 3 3
3 3 2 1 1 1 1 2 1 0
0 1 0 0 1 0 0 0 0 0
0 0 1 0 0 1 4 24 128 273.7
441.7 648 869.7 1068 1238.3 1394.3 1534.9 1670.9 1796 1904.6
2001.1 2089.1 2161.1 2225.7 2266.9 2284 2289.7 2280.6 2270.3 2258.9
2229.1 2166.3 2080.6 1981.1 1874.3 1764.6 1654.3 1544 1440 1353.1
1297.7 1274.9 1268.6
