IESNA:LM-63-2002
[TEST]253p172
[TESTLAB]METALUX LABORITORIES
[ISSUEDATE]10/31/07
[MANUFAC]COOPER LIGHTING - SHAPER
[LUMCAT]1240-OB-36-CFL/3/27
[LUMINAIRE] SHAPER 36 INCH 1240 SERIES DIRECT/INDIRECT INTERIOR TAPERED PENDANT FIXTURE
[LAMP]THREE - F24BX - 1800 LUMENS - 24 WATTS THREE GX24 T4 COMPACT
[MORE]FLUORESCENT LAMPS
[OTHER]THIS FILE WAS PRORATED FROM TEST NO: 253p172
TILT=NONE
3 1800 1 73 25 1 1 -3 -3 0.1
1 1 50
0 2.5 5 7.5 10 12.5 15 17.5 20 22.5
25 27.5 30 32.5 35 37.5 40 42.5 45 47.5
50 52.5 55 57.5 60 62.5 65 67.5 70 72.5
75 77.5 80 82.5 85 87.5 90 92.5 95 97.5
100 102.5 105 107.5 110 112.5 115 117.5 120 122.5
125 127.5 130 132.5 135 137.5 140 142.5 145 147.5
150 152.5 155 157.5 160 162.5 165 167.5 170 172.5
175 177.5 180
0 20 30 40 60 80 90 100 120 140
150 160 180 200 210 220 240 260 270 280
300 320 330 340 360
0 0 1 1 0 0 0 0 0 0
0 0 0 0 0 0 0 0 0 0
0 0 0 0 0 0 0 0 0 0
0 0 0 0 0 0 1 14.3 85.7 184.6
286.9 420.6 557.1 668 749.1 827.4 885.7 935.4 969.7 997.7
1028 1060.6 1084.6 1093.1 1095.4 1094.3 1089.1 1077.7 1058.9 1044.6
1034.9 1019.4 992.6 956.6 913.1 866.3 819.4 772 729.1 698.3
684.6 682.9 682.3
0 0 1 1 0 1 1 0 0 0
0 0 0 0 0 0 0 0 0 0
0 0 0 0 0 0 0 0 0 0
0 0 0 0 0 0 2 16 80.6 171.4
266.9 346.9 438.3 521.7 593.7 661.7 713.7 778.3 849.7 913.1
964.6 1000.6 1014.3 1028.6 1046.3 1061.7 1072.6 1074.3 1070.9 1062.9
1048 1017.1 974.3 927.4 885.1 847.4 806.3 764.6 725.1 697.7
684.6 683.4 682.3
0 0 1 1 0 1 0 0 0 0
0 0 0 0 0 0 0 0 0 0
0 0 0 0 0 0 0 0 0 0
0 0 0 0 0 0 1 15.4 71.4 138.9
208 280.6 340.6 418.9 491.4 561.1 642.9 711.4 774.3 846.3
908 950.9 984 1004.6 1015.4 1026.9 1037.7 1049.7 1058.3 1053.7
1030.9 996.6 956 906.3 861.7 821.1 785.1 748.6 714.9 691.4
680 681.7 682.3
0 0 1 1 1 0 0 0 0 0
0 0 0 0 0 0 0 0 0 0
0 0 0 0 0 0 0 0 0 0
0 0 0 0 0 0 2 23.4 86.3 161.1
231.4 302.3 359.4 423.4 492.6 573.7 654.3 731.4 783.4 836.6
897.1 944.6 978.3 1004.6 1012 1011.4 1018.9 1026.3 1030.9 1019.4
993.1 955.4 915.4 873.1 828.6 788.6 755.4 727.4 703.4 685.7
677.7 678.9 682.3
0 0 1 0 0 0 0 0 0 0
0 0 0 0 0 0 0 0 0 0
0 0 0 0 0 0 0 0 0 0
0 0 0 0 0 0 1 25.7 95.4 184
267.4 340.6 403.4 464.6 549.7 641.1 735.4 827.4 893.1 936
1001.1 1054.9 1094.3 1120 1126.3 1109.1 1086.9 1066.9 1043.4 1022.3
990.9 944.6 896.6 846.3 794.9 750.3 720.6 703.4 689.7 682.9
678.3 677.7 682.3
0 0 0 0 0 0 0 0 0 0
0 0 0 0 0 0 0 0 0 0
0 0 0 0 0 0 0 0 0 0
0 0 0 0 0 0 0 11.4 49.1 138.3
225.7 307.4 378.3 448 521.7 606.3 700.6 786.9 829.1 869.1
914.9 964.6 993.7 997.7 1001.1 1002.9 1014.3 1024.6 1032 1022.9
997.7 961.7 921.7 879.4 834.9 794.9 760.6 732.6 706.9 688.6
680 680 682.3
0 0 0 0 0 0 0 0 0 0
0 0 0 0 0 0 0 0 0 0
0 0 0 0 0 0 0 0 0 0
0 0 0 0 0 0 0 8.6 42.3 124.6
208 281.1 350.9 437.1 518.9 604 698.3 765.7 814.3 873.7
922.9 977.7 992.6 997.7 1005.1 1020.6 1033.7 1049.1 1058.3 1052.6
1030.9 997.7 958.3 909.7 864 824.6 789.1 752.6 717.7 693.7
681.7 681.7 682.3
0 0 1 0 0 0 0 0 0 0
0 0 0 0 0 0 0 0 0 0
0 0 0 0 0 0 0 0 0 0
0 0 0 0 0 0 1 13.1 63.4 170.9
272.6 349.7 437.7 534.3 633.7 717.1 774.3 819.4 880 928.6
985.7 1012 1006.9 1014.9 1032.6 1051.4 1066.3 1070.9 1067.4 1059.4
1044.6 1015.4 973.7 928 885.7 846.9 806.9 765.1 725.7 697.7
683.4 682.3 682.3
0 0 1 1 0 0 0 0 0 0
0 0 0 0 0 0 0 0 0 0
0 0 0 0 0 0 0 0 0 0
0 0 0 0 0 0 1 14.3 85.7 184.6
286.9 420.6 557.1 668 749.1 827.4 885.7 935.4 969.7 997.7
1028 1060.6 1084.6 1093.1 1095.4 1094.3 1089.1 1077.7 1058.9 1044.6
1034.9 1019.4 992.6 956.6 913.1 866.3 819.4 772 729.1 698.3
684.6 682.9 682.3
0 0 1 1 0 1 1 0 0 0
0 0 0 0 0 0 0 0 0 0
0 0 0 0 0 0 0 0 0 0
0 0 0 0 0 0 2 16 80.6 171.4
266.9 346.9 438.3 521.7 593.7 661.7 713.7 778.3 849.7 913.1
964.6 1000.6 1014.3 1028.6 1046.3 1061.7 1072.6 1074.3 1070.9 1062.9
1048 1017.1 974.3 927.4 885.1 847.4 806.3 764.6 725.1 697.7
684.6 683.4 682.3
0 0 1 1 0 1 0 0 0 0
0 0 0 0 0 0 0 0 0 0
0 0 0 0 0 0 0 0 0 0
0 0 0 0 0 0 1 15.4 71.4 138.9
208 280.6 340.6 418.9 491.4 561.1 642.9 711.4 774.3 846.3
908 950.9 984 1004.6 1015.4 1026.9 1037.7 1049.7 1058.3 1053.7
1030.9 996.6 956 906.3 861.7 821.1 785.1 748.6 714.9 691.4
680 681.7 682.3
0 0 1 1 1 0 0 0 0 0
0 0 0 0 0 0 0 0 0 0
0 0 0 0 0 0 0 0 0 0
0 0 0 0 0 0 2 23.4 86.3 161.1
231.4 302.3 359.4 423.4 492.6 573.7 654.3 731.4 783.4 836.6
897.1 944.6 978.3 1004.6 1012 1011.4 1018.9 1026.3 1030.9 1019.4
993.1 955.4 915.4 873.1 828.6 788.6 755.4 727.4 703.4 685.7
677.7 678.9 682.3
0 0 1 0 0 0 0 0 0 0
0 0 0 0 0 0 0 0 0 0
0 0 0 0 0 0 0 0 0 0
0 0 0 0 0 0 1 25.7 95.4 184
267.4 340.6 403.4 464.6 549.7 641.1 735.4 827.4 893.1 936
1001.1 1054.9 1094.3 1120 1126.3 1109.1 1086.9 1066.9 1043.4 1022.3
990.9 944.6 896.6 846.3 794.9 750.3 720.6 703.4 689.7 682.9
678.3 677.7 682.3
0 0 0 0 0 0 0 0 0 0
0 0 0 0 0 0 0 0 0 0
0 0 0 0 0 0 0 0 0 0
0 0 0 0 0 0 0 11.4 49.1 138.3
225.7 307.4 378.3 448 521.7 606.3 700.6 786.9 829.1 869.1
914.9 964.6 993.7 997.7 1001.1 1002.9 1014.3 1024.6 1032 1022.9
997.7 961.7 921.7 879.4 834.9 794.9 760.6 732.6 706.9 688.6
680 680 682.3
0 0 0 0 0 0 0 0 0 0
0 0 0 0 0 0 0 0 0 0
0 0 0 0 0 0 0 0 0 0
0 0 0 0 0 0 0 8.6 42.3 124.6
208 281.1 350.9 437.1 518.9 604 698.3 765.7 814.3 873.7
922.9 977.7 992.6 997.7 1005.1 1020.6 1033.7 1049.1 1058.3 1052.6
1030.9 997.7 958.3 909.7 864 824.6 789.1 752.6 717.7 693.7
681.7 681.7 682.3
0 0 1 0 0 0 0 0 0 0
0 0 0 0 0 0 0 0 0 0
0 0 0 0 0 0 0 0 0 0
0 0 0 0 0 0 1 13.1 63.4 170.9
272.6 349.7 437.7 534.3 633.7 717.1 774.3 819.4 880 928.6
985.7 1012 1006.9 1014.9 1032.6 1051.4 1066.3 1070.9 1067.4 1059.4
1044.6 1015.4 973.7 928 885.7 846.9 806.9 765.1 725.7 697.7
683.4 682.3 682.3
0 0 1 1 0 0 0 0 0 0
0 0 0 0 0 0 0 0 0 0
0 0 0 0 0 0 0 0 0 0
0 0 0 0 0 0 1 14.3 85.7 184.6
286.9 420.6 557.1 668 749.1 827.4 885.7 935.4 969.7 997.7
1028 1060.6 1084.6 1093.1 1095.4 1094.3 1089.1 1077.7 1058.9 1044.6
1034.9 1019.4 992.6 956.6 913.1 866.3 819.4 772 729.1 698.3
684.6 682.9 682.3
0 0 1 1 0 1 1 0 0 0
0 0 0 0 0 0 0 0 0 0
0 0 0 0 0 0 0 0 0 0
0 0 0 0 0 0 2 16 80.6 171.4
266.9 346.9 438.3 521.7 593.7 661.7 713.7 778.3 849.7 913.1
964.6 1000.6 1014.3 1028.6 1046.3 1061.7 1072.6 1074.3 1070.9 1062.9
1048 1017.1 974.3 927.4 885.1 847.4 806.3 764.6 725.1 697.7
684.6 683.4 682.3
0 0 1 1 0 1 0 0 0 0
0 0 0 0 0 0 0 0 0 0
0 0 0 0 0 0 0 0 0 0
0 0 0 0 0 0 1 15.4 71.4 138.9
208 280.6 340.6 418.9 491.4 561.1 642.9 711.4 774.3 846.3
908 950.9 984 1004.6 1015.4 1026.9 1037.7 1049.7 1058.3 1053.7
1030.9 996.6 956 906.3 861.7 821.1 785.1 748.6 714.9 691.4
680 681.7 682.3
0 0 1 1 1 0 0 0 0 0
0 0 0 0 0 0 0 0 0 0
0 0 0 0 0 0 0 0 0 0
0 0 0 0 0 0 2 23.4 86.3 161.1
231.4 302.3 359.4 423.4 492.6 573.7 654.3 731.4 783.4 836.6
897.1 944.6 978.3 1004.6 1012 1011.4 1018.9 1026.3 1030.9 1019.4
993.1 955.4 915.4 873.1 828.6 788.6 755.4 727.4 703.4 685.7
677.7 678.9 682.3
0 0 1 0 0 0 0 0 0 0
0 0 0 0 0 0 0 0 0 0
0 0 0 0 0 0 0 0 0 0
0 0 0 0 0 0 1 25.7 95.4 184
267.4 340.6 403.4 464.6 549.7 641.1 735.4 827.4 893.1 936
1001.1 1054.9 1094.3 1120 1126.3 1109.1 1086.9 1066.9 1043.4 1022.3
990.9 944.6 896.6 846.3 794.9 750.3 720.6 703.4 689.7 682.9
678.3 677.7 682.3
0 0 0 0 0 0 0 0 0 0
0 0 0 0 0 0 0 0 0 0
0 0 0 0 0 0 0 0 0 0
0 0 0 0 0 0 0 11.4 49.1 138.3
225.7 307.4 378.3 448 521.7 606.3 700.6 786.9 829.1 869.1
914.9 964.6 993.7 997.7 1001.1 1002.9 1014.3 1024.6 1032 1022.9
997.7 961.7 921.7 879.4 834.9 794.9 760.6 732.6 706.9 688.6
680 680 682.3
0 0 0 0 0 0 0 0 0 0
0 0 0 0 0 0 0 0 0 0
0 0 0 0 0 0 0 0 0 0
0 0 0 0 0 0 0 8.6 42.3 124.6
208 281.1 350.9 437.1 518.9 604 698.3 765.7 814.3 873.7
922.9 977.7 992.6 997.7 1005.1 1020.6 1033.7 1049.1 1058.3 1052.6
1030.9 997.7 958.3 909.7 864 824.6 789.1 752.6 717.7 693.7
681.7 681.7 682.3
0 0 1 0 0 0 0 0 0 0
0 0 0 0 0 0 0 0 0 0
0 0 0 0 0 0 0 0 0 0
0 0 0 0 0 0 1 13.1 63.4 170.9
272.6 349.7 437.7 534.3 633.7 717.1 774.3 819.4 880 928.6
985.7 1012 1006.9 1014.9 1032.6 1051.4 1066.3 1070.9 1067.4 1059.4
1044.6 1015.4 973.7 928 885.7 846.9 806.9 765.1 725.7 697.7
683.4 682.3 682.3
0 0 1 1 0 0 0 0 0 0
0 0 0 0 0 0 0 0 0 0
0 0 0 0 0 0 0 0 0 0
0 0 0 0 0 0 1 14.3 85.7 184.6
286.9 420.6 557.1 668 749.1 827.4 885.7 935.4 969.7 997.7
1028 1060.6 1084.6 1093.1 1095.4 1094.3 1089.1 1077.7 1058.9 1044.6
1034.9 1019.4 992.6 956.6 913.1 866.3 819.4 772 729.1 698.3
684.6 682.9 682.3
