IESNA:LM-63-1995
[TEST]     19160
[MANUFAC]COOPER LIGHTING - SHAPER                                  
[LUMCAT]672-WP-16-CF1/27                                                                
[LUMINAIRE]EXTERIOR WALL MOUNT LUMINAIRE WITH WHITE INTERIOR AND WHITE PLASTIC OVER CLEAR PLASTIC LENS                   
[LAMP]ONE GE 27 WATT CPFL LAMP                                                        
[LAMPCAT]F27/24BX/SPX35. LUMEN RATING = 1800 LMS.                                        
[OTHER]ONE UNIVERSAL C2642UNVSE BALLAST OPERATING AT 120 VAC AND 25 WATTS              
TILT=NONE
1
      1800
1
73
17
1
1
  0.35
  0.46
  1.25
1
1
   25.0000
0 2.5 5 7.5 10 12.5 15 17.5 20 22.5 25 27.5 30 32.5 35 37.5
40 42.5 45 47.5 50 52.5 55 57.5 60 62.5 65 67.5 70 72.5 75
77.5 80 82.5 85 87.5 90 92.5 95 97.5 100 102.5 105 107.5 110
112.5 115 117.5 120 122.5 125 127.5 130 132.5 135 137.5 140
142.5 145 147.5 150 152.5 155 157.5 160 162.5 165 167.5 170
172.5 175 177.5 180
0 22.5 45 67.5 90 112.5 135 157.5 180 202.5 225 247.5
270 292.5 315 337.5 360
      37.5       40.9       48.0       54.4       61.8       68.4       74.4       80.2       85.8       90.3
      93.0       94.7       96.0       96.4       96.6       96.5       96.4       96.4       95.7       95.0
      94.4       94.1       93.4       93.9       94.6       95.3       95.6       96.4       96.9       97.6
      98.1       98.1       98.4       98.6       98.5       98.1       98.2      100.3       99.6       98.9
      98.0       97.0       95.3       93.8       91.5       89.6       87.1       84.7       82.0       79.3
      76.3       73.1       70.0       66.2       62.8       58.9       54.7       50.6       46.4       42.1
      37.9       33.4       28.8       24.2       20.1       15.8       11.8        8.2        5.1        3.1
       1.6        0.8        0.5
      37.5       42.2       51.2       60.3       70.6       81.0       89.2       95.1      101.0      105.7
     108.8      111.2      112.4      114.2      114.8      114.7      115.1      115.5      115.3      115.5
     115.6      116.1      117.0      118.1      119.8      121.6      124.1      126.0      127.5      129.1
     130.3      131.5      132.3      132.5      132.6      133.0      133.1      134.0      133.4      132.3
     130.9      129.1      126.5      124.0      121.2      118.0      114.2      110.7      106.8      102.4
      98.1       92.8       87.9       82.7       77.3       71.8       66.3       60.2       54.5       48.4
      42.3       36.4       30.7       25.3       20.2       15.2       10.9        7.4        4.2        2.1
       0.8        0.5        0.5
      37.5       41.6       52.0       64.7       79.4       95.6      109.5      120.0      128.3      134.2
     138.2      141.1      142.5      144.3      145.6      146.9      148.2      148.2      148.7      149.1
     149.2      150.1      150.3      151.5      154.2      157.2      160.3      163.3      165.9      168.3
     170.5      172.3      173.7      174.6      175.2      175.9      176.1      176.8      176.5      175.2
     172.8      170.6      168.1      165.0      161.5      157.4      152.9      148.0      143.0      137.0
     131.7      124.9      118.5      112.0      104.8       97.4       89.5       81.7       73.5       65.5
      57.0       49.4       41.5       33.8       26.5       19.7       14.5        9.5        5.3        3.0
       1.3        0.5        0.5
      37.5       40.6       50.2       63.4       80.7       95.3      108.8      120.3      132.1      141.4
     146.5      149.7      151.5      152.4      153.9      155.1      156.6      158.0      159.5      159.9
     160.2      160.9      162.5      165.1      167.3      169.1      170.8      172.7      174.7      177.0
     179.1      181.0      182.6      183.5      184.4      185.2      185.5      186.9      186.0      184.6
     182.8      180.4      177.1      174.0      170.6      166.5      162.1      157.0      151.8      145.9
     140.1      133.8      127.1      119.7      112.2      104.6       96.1       88.0       79.9       72.3
      63.7       56.0       47.9       40.0       32.1       24.8       18.1       12.2        7.0        3.4
       0.9        0.5        0.5
      37.5       40.0       48.1       60.6       76.5       90.9      104.9      117.6      130.6      139.2
     143.7      147.3      149.6      150.8      152.0      152.9      153.6      155.3      155.9      155.8
     155.4      156.3      158.9      160.8      162.2      163.6      165.2      166.7      168.2      169.9
     171.8      173.3      174.8      176.1      176.8      177.1      177.6      177.1      176.0      175.0
     173.2      171.2      168.6      165.9      161.9      158.2      154.0      149.9      145.2      139.8
     134.7      128.6      122.7      116.6      110.2      103.5       95.6       88.4       81.3       73.6
      65.8       57.8       49.8       42.1       35.0       27.4       19.9       13.5        8.3        4.3
       1.3        0.5        0.5
      37.5       40.6       50.2       63.4       80.7       95.3      108.8      120.3      132.1      141.4
     146.5      149.7      151.5      152.4      153.9      155.1      156.6      158.0      159.5      159.9
     160.2      160.9      162.5      165.1      167.3      169.1      170.8      172.7      174.7      177.0
     179.1      181.0      182.6      183.5      184.4      185.2      185.5      186.9      186.0      184.6
     182.8      180.4      177.1      174.0      170.6      166.5      162.1      157.0      151.8      145.9
     140.1      133.8      127.1      119.7      112.2      104.6       96.1       88.0       79.9       72.3
      63.7       56.0       47.9       40.0       32.1       24.8       18.1       12.2        7.0        3.4
       0.9        0.5        0.5
      37.5       41.6       52.0       64.7       79.4       95.6      109.5      120.0      128.3      134.2
     138.2      141.1      142.5      144.3      145.6      146.9      148.2      148.2      148.7      149.1
     149.2      150.1      150.3      151.5      154.2      157.2      160.3      163.3      165.9      168.3
     170.5      172.3      173.7      174.6      175.2      175.9      176.1      176.8      176.5      175.2
     172.8      170.6      168.1      165.0      161.5      157.4      152.9      148.0      143.0      137.0
     131.7      124.9      118.5      112.0      104.8       97.4       89.5       81.7       73.5       65.5
      57.0       49.4       41.5       33.8       26.5       19.7       14.5        9.5        5.3        3.0
       1.3        0.5        0.5
      37.5       42.2       51.2       60.3       70.6       81.0       89.2       95.1      101.0      105.7
     108.8      111.2      112.4      114.2      114.8      114.7      115.1      115.5      115.3      115.5
     115.6      116.1      117.0      118.1      119.8      121.6      124.1      126.0      127.5      129.1
     130.3      131.5      132.3      132.5      132.6      133.0      133.1      134.0      133.4      132.3
     130.9      129.1      126.5      124.0      121.2      118.0      114.2      110.7      106.8      102.4
      98.1       92.8       87.9       82.7       77.3       71.8       66.3       60.2       54.5       48.4
      42.3       36.4       30.7       25.3       20.2       15.2       10.9        7.4        4.2        2.1
       0.8        0.5        0.5
      37.5       40.9       48.0       54.4       61.8       68.4       74.4       80.2       85.8       90.3
      93.0       94.7       96.0       96.4       96.6       96.5       96.4       96.4       95.7       95.0
      94.4       94.1       93.4       93.9       94.6       95.3       95.6       96.4       96.9       97.6
      98.1       98.1       98.4       98.6       98.5       98.1       98.2      100.3       99.6       98.9
      98.0       97.0       95.3       93.8       91.5       89.6       87.1       84.7       82.0       79.3
      76.3       73.1       70.0       66.2       62.8       58.9       54.7       50.6       46.4       42.1
      37.9       33.4       28.8       24.2       20.1       15.8       11.8        8.2        5.1        3.1
       1.6        0.8        0.5
      37.5       40.2       46.6       54.3       62.9       70.4       78.2       84.5       90.5       95.1
      97.2       96.7       95.8       95.0       93.4       92.5       91.1       89.5       88.3       86.6
      85.3       84.3       84.1       83.8       84.2       84.5       85.0       85.4       85.6       86.0
      86.2       86.4       86.3       86.2       85.9       85.8       85.6       89.7       89.1       88.6
      87.6       86.9       85.5       84.3       82.6       80.9       78.7       76.6       74.3       71.7
      69.4       66.3       63.6       60.4       57.1       53.8       50.1       46.8       43.0       39.3
      35.2       31.3       27.1       22.9       18.9       15.4       11.4        8.4        5.3        3.3
       1.6        0.7        0.5
      37.5       41.0       48.6       58.8       70.9       83.6       91.9       96.0       98.1       98.6
      96.7       94.2       90.8       86.9       83.2       79.1       75.7       73.1       70.6       68.1
      65.4       63.8       63.0       62.9       62.5       62.6       62.2       62.5       62.5       62.3
      62.2       61.7       61.7       61.2       61.1       60.5       60.6       64.1       64.1       63.4
      63.0       62.1       61.4       60.2       59.1       57.9       56.7       55.1       53.0       51.4
      49.1       47.0       45.1       42.5       40.0       37.5       34.7       32.2       29.2       26.3
      23.3       20.8       17.5       14.8       11.9        9.7        7.1        5.3        3.6        2.1
       0.8        0.7        0.5
      37.5       41.6       50.3       61.0       71.6       77.6       83.0       86.2       86.3       83.9
      80.4       75.5       70.3       65.1       60.4       55.5       50.6       45.9       42.2       39.8
      37.6       35.7       33.9       32.7       31.3       30.3       29.7       28.7       28.0       27.4
      27.0       26.6       25.8       25.5       24.8       25.0       24.7       28.0       28.2       27.8
      27.8       27.0       26.8       25.9       25.6       24.9       24.4       23.5       22.7       21.7
      20.7       19.6       18.5       17.2       16.1       14.8       13.5       12.2       11.0        9.6
       8.4        6.8        6.1        4.6        4.1        3.1        2.3        1.2        1.0        0.5
       0.5        0.5        0.5
      37.5       42.3       49.6       58.9       67.0       73.2       78.1       80.4       78.2       74.2
      69.6       64.1       58.9       53.5       47.9       41.9       36.0       30.8       27.1       23.6
      20.4       17.6       15.4       13.3       11.0        9.3        7.7        6.3        5.1        4.3
       3.4        2.3        1.8        1.0        0.5        0.5        0.5        0.6        0.5        0.5
       0.5        0.6        0.5        0.6        0.5        0.7        0.7        0.7        0.5        0.6
       0.5        0.5        0.5        0.5        0.5        0.5        0.5        0.5        0.5        0.5
       0.5        0.5        0.5        0.5        0.5        0.5        0.5        0.5        0.5        0.5
       0.5        0.5        0.5
      37.5       41.6       50.3       61.0       71.6       77.6       83.0       86.2       86.3       83.9
      80.4       75.5       70.3       65.1       60.4       55.5       50.6       45.9       42.2       39.8
      37.6       35.7       33.9       32.7       31.3       30.3       29.7       28.7       28.0       27.4
      27.0       26.6       25.8       25.5       24.8       25.0       24.7       28.0       28.2       27.8
      27.8       27.0       26.8       25.9       25.6       24.9       24.4       23.5       22.7       21.7
      20.7       19.6       18.5       17.2       16.1       14.8       13.5       12.2       11.0        9.6
       8.4        6.8        6.1        4.6        4.1        3.1        2.3        1.2        1.0        0.5
       0.5        0.5        0.5
      37.5       41.0       48.6       58.8       70.9       83.6       91.9       96.0       98.1       98.6
      96.7       94.2       90.8       86.9       83.2       79.1       75.7       73.1       70.6       68.1
      65.4       63.8       63.0       62.9       62.5       62.6       62.2       62.5       62.5       62.3
      62.2       61.7       61.7       61.2       61.1       60.5       60.6       64.1       64.1       63.4
      63.0       62.1       61.4       60.2       59.1       57.9       56.7       55.1       53.0       51.4
      49.1       47.0       45.1       42.5       40.0       37.5       34.7       32.2       29.2       26.3
      23.3       20.8       17.5       14.8       11.9        9.7        7.1        5.3        3.6        2.1
       0.8        0.7        0.5
      37.5       40.2       46.6       54.3       62.9       70.4       78.2       84.5       90.5       95.1
      97.2       96.7       95.8       95.0       93.4       92.5       91.1       89.5       88.3       86.6
      85.3       84.3       84.1       83.8       84.2       84.5       85.0       85.4       85.6       86.0
      86.2       86.4       86.3       86.2       85.9       85.8       85.6       89.7       89.1       88.6
      87.6       86.9       85.5       84.3       82.6       80.9       78.7       76.6       74.3       71.7
      69.4       66.3       63.6       60.4       57.1       53.8       50.1       46.8       43.0       39.3
      35.2       31.3       27.1       22.9       18.9       15.4       11.4        8.4        5.3        3.3
       1.6        0.7        0.5
      37.5       40.9       48.0       54.4       61.8       68.4       74.4       80.2       85.8       90.3
      93.0       94.7       96.0       96.4       96.6       96.5       96.4       96.4       95.7       95.0
      94.4       94.1       93.4       93.9       94.6       95.3       95.6       96.4       96.9       97.6
      98.1       98.1       98.4       98.6       98.5       98.1       98.2      100.3       99.6       98.9
      98.0       97.0       95.3       93.8       91.5       89.6       87.1       84.7       82.0       79.3
      76.3       73.1       70.0       66.2       62.8       58.9       54.7       50.6       46.4       42.1
      37.9       33.4       28.8       24.2       20.1       15.8       11.8        8.2        5.1        3.1
       1.6        0.8        0.5
