IESNA:LM-63-1995
[TEST]     19363
[MANUFAC]COOPER LIGHTING - SHAPER                                 
[LUMCAT]672-WP-CF2/27                                                                   
[LUMINAIRE]EXTERIOR WALL MOUNT LUMINAIRE WITH WHITE INTERIOR AND WHITE PLASTIC LENS                                      
[LAMP]TWO SYLVANIA 27 WATT CPFL LAMPS                                                 
[LAMPCAT]FT24DL/835. LUMEN RATING = 3600 LMS.                                            
[OTHER]ONE UNIVERSAL C2642UNVSE BALLAST OPERATING AT 120 VAC AND 49 WATTS              
TILT=NONE
1
      3600
1
73
17
1
1
  0.35
  0.46
  1.23
1
1
   49.0000
0 2.5 5 7.5 10 12.5 15 17.5 20 22.5 25 27.5 30 32.5 35 37.5
40 42.5 45 47.5 50 52.5 55 57.5 60 62.5 65 67.5 70 72.5 75
77.5 80 82.5 85 87.5 90 92.5 95 97.5 100 102.5 105 107.5 110
112.5 115 117.5 120 122.5 125 127.5 130 132.5 135 137.5 140
142.5 145 147.5 150 152.5 155 157.5 160 162.5 165 167.5 170
172.5 175 177.5 180
0 22.5 45 67.5 90 112.5 135 157.5 180 202.5 225 247.5
270 292.5 315 337.5 360
      66.4       71.0       85.6      100.5      116.1      128.6      138.1      147.5      157.2      164.8
     171.1      175.3      177.8      179.1      179.6      179.6      179.5      179.2      179.1      178.2
     176.9      175.9      175.7      174.8      174.4      174.5      175.9      176.4      176.9      176.9
     177.2      177.7      177.7      177.2      176.1      175.9      175.9      177.4      176.5      175.5
     173.9      171.9      169.8      167.1      164.1      160.4      157.3      153.1      149.1      144.1
     139.2      133.9      128.8      122.5      117.1      111.0      104.1       97.6       90.5       83.9
      76.2       69.4       61.5       53.7       46.3       38.3       31.4       23.8       16.8       10.9
       5.3        2.2        0.8
      66.4       71.6       89.1      112.5      138.5      160.7      181.4      197.5      211.3      219.9
     227.1      232.5      236.0      239.7      241.7      241.5      240.7      241.3      241.1      240.9
     241.1      241.3      241.7      242.4      244.2      245.6      247.5      249.1      251.4      253.5
     255.3      256.3      257.5      258.4      258.4      258.4      258.4      255.7      254.5      253.2
     250.2      247.2      244.4      240.1      236.2      231.2      225.8      220.1      213.5      206.4
     199.6      190.9      183.1      174.3      165.2      156.3      146.1      136.4      125.9      116.1
     105.0       95.1       84.2       73.0       63.0       51.7       42.2       31.5       23.8       15.7
       8.3        3.4        0.8
      66.4       71.9       95.9      130.9      167.0      201.2      233.1      252.4      267.2      279.3
     288.9      298.0      303.8      307.6      312.0      314.7      315.7      315.6      313.9      313.3
     312.0      311.0      310.0      309.2      309.0      310.8      313.3      316.1      318.8      322.0
     324.6      327.3      329.3      330.4      330.4      331.8      332.2      325.8      324.8      323.1
     319.9      316.8      312.0      307.3      302.8      296.9      289.6      282.9      274.4      266.2
     256.8      247.1      236.5      225.8      214.6      202.7      189.7      177.2      163.8      150.0
     136.0      121.6      107.7       93.0       80.3       65.9       52.7       39.6       28.0       17.5
       8.7        2.9        0.8
      66.4       71.4       97.5      132.5      174.5      209.8      235.8      257.5      278.2      296.6
     309.2      318.8      326.3      332.2      335.7      338.0      339.8      342.7      343.9      343.5
     342.7      341.5      339.8      340.0      339.0      337.4      335.3      334.4      334.1      335.3
     337.5      340.0      341.7      342.3      342.9      344.4      344.8      337.4      335.7      333.8
     331.6      327.7      324.2      319.3      313.1      307.3      301.0      292.7      284.7      275.0
     266.2      255.7      245.4      233.3      221.5      209.4      196.7      183.7      169.7      156.8
     142.4      128.6      113.8       99.0       84.2       70.0       55.6       41.8       30.1       18.2
       9.8        2.9        0.8
      66.4       70.6       94.8      129.2      167.5      197.9      224.0      246.5      268.5      284.9
     296.6      306.3      313.5      318.7      322.3      325.8      329.3      330.8      331.6      331.4
     330.1      329.3      329.5      326.4      322.5      318.7      315.1      311.7      309.8      309.6
     311.3      312.4      313.5      313.5      314.3      315.1      315.6      310.2      309.4      307.7
     304.4      301.3      298.3      293.7      288.0      282.2      276.9      269.5      262.1      253.6
     244.8      236.0      226.7      217.0      206.6      195.7      183.6      172.0      159.5      147.8
     134.4      122.1      107.7       94.7       82.1       68.1       55.2       41.6       29.6       18.6
       8.9        2.9        0.8
      66.4       71.4       97.5      132.5      174.5      209.8      235.8      257.5      278.2      296.6
     309.2      318.8      326.3      332.2      335.7      338.0      339.8      342.7      343.9      343.5
     342.7      341.5      339.8      340.0      339.0      337.4      335.3      334.4      334.1      335.3
     337.5      340.0      341.7      342.3      342.9      344.4      344.8      337.4      335.7      333.8
     331.6      327.7      324.2      319.3      313.1      307.3      301.0      292.7      284.7      275.0
     266.2      255.7      245.4      233.3      221.5      209.4      196.7      183.7      169.7      156.8
     142.4      128.6      113.8       99.0       84.2       70.0       55.6       41.8       30.1       18.2
       9.8        2.9        0.8
      66.4       71.9       95.9      130.9      167.0      201.2      233.1      252.4      267.2      279.3
     288.9      298.0      303.8      307.6      312.0      314.7      315.7      315.6      313.9      313.3
     312.0      311.0      310.0      309.2      309.0      310.8      313.3      316.1      318.8      322.0
     324.6      327.3      329.3      330.4      330.4      331.8      332.2      325.8      324.8      323.1
     319.9      316.8      312.0      307.3      302.8      296.9      289.6      282.9      274.4      266.2
     256.8      247.1      236.5      225.8      214.6      202.7      189.7      177.2      163.8      150.0
     136.0      121.6      107.7       93.0       80.3       65.9       52.7       39.6       28.0       17.5
       8.7        2.9        0.8
      66.4       71.6       89.1      112.5      138.5      160.7      181.4      197.5      211.3      219.9
     227.1      232.5      236.0      239.7      241.7      241.5      240.7      241.3      241.1      240.9
     241.1      241.3      241.7      242.4      244.2      245.6      247.5      249.1      251.4      253.5
     255.3      256.3      257.5      258.4      258.4      258.4      258.4      255.7      254.5      253.2
     250.2      247.2      244.4      240.1      236.2      231.2      225.8      220.1      213.5      206.4
     199.6      190.9      183.1      174.3      165.2      156.3      146.1      136.4      125.9      116.1
     105.0       95.1       84.2       73.0       63.0       51.7       42.2       31.5       23.8       15.7
       8.3        3.4        0.8
      66.4       71.0       85.6      100.5      116.1      128.6      138.1      147.5      157.2      164.8
     171.1      175.3      177.8      179.1      179.6      179.6      179.5      179.2      179.1      178.2
     176.9      175.9      175.7      174.8      174.4      174.5      175.9      176.4      176.9      176.9
     177.2      177.7      177.7      177.2      176.1      175.9      175.9      177.4      176.5      175.5
     173.9      171.9      169.8      167.1      164.1      160.4      157.3      153.1      149.1      144.1
     139.2      133.9      128.8      122.5      117.1      111.0      104.1       97.6       90.5       83.9
      76.2       69.4       61.5       53.7       46.3       38.3       31.4       23.8       16.8       10.9
       5.3        2.2        0.8
      66.4       71.9       87.4      107.4      127.8      143.6      159.0      171.3      181.4      188.7
     192.0      191.7      189.9      187.4      183.9      181.4      178.0      174.3      171.2      167.9
     165.9      163.8      161.3      159.9      159.5      158.6      159.6      159.2      159.5      160.1
     159.6      159.9      159.2      158.9      157.6      157.8      157.6      157.0      155.9      155.2
     153.5      151.5      149.4      146.1      143.8      140.1      137.5      133.8      129.8      125.7
     120.5      116.2      111.1      106.0      100.4       95.5       89.5       83.7       77.4       70.8
      64.2       57.2       50.0       44.1       36.9       30.1       22.7       16.3       10.9        5.6
       2.8        0.7        0.8
      66.4       73.7       92.8      117.3      145.1      166.0      180.4      187.4      189.9      188.7
     183.9      177.2      170.6      164.0      157.2      150.8      145.5      139.5      135.4      131.7
     128.6      126.5      125.1      124.1      122.8      121.6      121.8      120.5      120.0      119.5
     118.5      118.4      117.5      116.5      115.7      115.2      115.2      114.4      114.0      112.8
     111.7      110.1      108.7      107.2      105.0      102.9       99.6       97.0       94.4       91.1
      87.9       84.8       80.9       77.2       72.3       68.7       63.6       59.7       54.6       49.9
      45.5       39.9       35.6       29.9       25.4       20.2       16.3       11.8        7.7        5.0
       2.1        1.5        0.8
      66.4       75.7       95.1      122.6      145.6      159.9      167.3      169.5      166.5      161.5
     153.5      144.2      134.9      126.9      118.9      109.7      102.1       95.7       90.1       86.0
      81.3       77.8       75.1       72.3       70.4       68.1       66.0       64.4       62.6       60.7
      59.3       57.0       56.4       54.2       53.6       52.7       52.5       53.9       53.6       52.5
      52.1       50.9       50.5       49.2       47.8       47.2       45.9       44.3       42.0       40.3
      38.9       36.9       35.2       32.8       31.3       29.5       27.0       24.8       22.5       19.8
      17.8       15.1       12.4       11.4        9.1        7.2        5.0        3.8        2.5        1.5
       0.5        0.9        0.8
      66.4       77.8       97.1      121.6      138.7      149.6      155.5      154.7      148.3      140.3
     131.2      121.6      111.5      102.1       92.0       81.7       71.6       63.8       56.6       50.9
      44.3       38.9       34.2       30.7       26.6       23.3       19.4       16.5       13.6       10.4
       8.3        6.4        4.4        2.9        1.5        0.5        0.5        0.5        0.5        0.5
       0.5        0.5        0.5        0.5        0.5        0.5        0.5        0.5        0.5        0.5
       0.5        0.5        0.5        0.5        0.5        0.5        0.5        0.5        0.5        0.5
       0.5        0.5        0.5        0.5        0.5        0.5        0.5        0.5        0.5        0.5
       0.5        0.5        0.8
      66.4       75.7       95.1      122.6      145.6      159.9      167.3      169.5      166.5      161.5
     153.5      144.2      134.9      126.9      118.9      109.7      102.1       95.7       90.1       86.0
      81.3       77.8       75.1       72.3       70.4       68.1       66.0       64.4       62.6       60.7
      59.3       57.0       56.4       54.2       53.6       52.7       52.5       53.9       53.6       52.5
      52.1       50.9       50.5       49.2       47.8       47.2       45.9       44.3       42.0       40.3
      38.9       36.9       35.2       32.8       31.3       29.5       27.0       24.8       22.5       19.8
      17.8       15.1       12.4       11.4        9.1        7.2        5.0        3.8        2.5        1.5
       0.5        0.9        0.8
      66.4       73.7       92.8      117.3      145.1      166.0      180.4      187.4      189.9      188.7
     183.9      177.2      170.6      164.0      157.2      150.8      145.5      139.5      135.4      131.7
     128.6      126.5      125.1      124.1      122.8      121.6      121.8      120.5      120.0      119.5
     118.5      118.4      117.5      116.5      115.7      115.2      115.2      114.4      114.0      112.8
     111.7      110.1      108.7      107.2      105.0      102.9       99.6       97.0       94.4       91.1
      87.9       84.8       80.9       77.2       72.3       68.7       63.6       59.7       54.6       49.9
      45.5       39.9       35.6       29.9       25.4       20.2       16.3       11.8        7.7        5.0
       2.1        1.5        0.8
      66.4       71.9       87.4      107.4      127.8      143.6      159.0      171.3      181.4      188.7
     192.0      191.7      189.9      187.4      183.9      181.4      178.0      174.3      171.2      167.9
     165.9      163.8      161.3      159.9      159.5      158.6      159.6      159.2      159.5      160.1
     159.6      159.9      159.2      158.9      157.6      157.8      157.6      157.0      155.9      155.2
     153.5      151.5      149.4      146.1      143.8      140.1      137.5      133.8      129.8      125.7
     120.5      116.2      111.1      106.0      100.4       95.5       89.5       83.7       77.4       70.8
      64.2       57.2       50.0       44.1       36.9       30.1       22.7       16.3       10.9        5.6
       2.8        0.7        0.8
      66.4       71.0       85.6      100.5      116.1      128.6      138.1      147.5      157.2      164.8
     171.1      175.3      177.8      179.1      179.6      179.6      179.5      179.2      179.1      178.2
     176.9      175.9      175.7      174.8      174.4      174.5      175.9      176.4      176.9      176.9
     177.2      177.7      177.7      177.2      176.1      175.9      175.9      177.4      176.5      175.5
     173.9      171.9      169.8      167.1      164.1      160.4      157.3      153.1      149.1      144.1
     139.2      133.9      128.8      122.5      117.1      111.0      104.1       97.6       90.5       83.9
      76.2       69.4       61.5       53.7       46.3       38.3       31.4       23.8       16.8       10.9
       5.3        2.2        0.8
