IESNA:LM-63-2002
[TEST]P13209
[TESTLAB]PEACHTREE CITY
[ISSUEDATE]03/21/12
[MANUFAC]COOPER LIGHTING - PORTFOLIO
[LUMCAT]CSQ6142E-6CSQWW1LI
[LUMINAIRE]PORTFOLIO 6 INCH SQUARE CFL 55 DEGREE CUTOFF RECESSED WALL WASH LUMINAIRE
[MORE]WITH SPECULAR CLEAR TRIM
[_MOUNTING]RECESSED
TILT=NONE
1 2400 1 37 23 1 1 0.5 0.5 0
1 1 35.6
0 2.5 5 7.5 10 12.5 15 17.5 20 22.5
25 27.5 30 32.5 35 37.5 40 42.5 45 47.5
50 52.5 55 57.5 60 62.5 65 67.5 70 72.5
75 77.5 80 82.5 85 87.5 90
0 5 10 15 20 25 30 35 40 45
50 55 60 65 70 75 80 85 90 112.5
135 157.5 180
519 534 551 566 577 585 591 592 588 581
568 549 523 490 453 415 377 339 305 274
247 221 196 173 152 133 115 99 83 67
51 35 20 6 0 0 0
519 534 551 565 577 585 590 591 588 580
568 549 522 489 453 415 377 339 305 274
246 221 197 173 153 134 116 99 83 67
51 35 20 6 0 0 0
519 534 551 565 576 584 589 590 586 579
566 547 521 488 453 415 377 339 305 274
246 221 197 174 153 133 115 98 81 65
49 33 19 6 0 0 0
519 534 550 564 575 583 587 587 584 576
563 544 520 486 451 414 376 340 305 274
246 220 196 173 152 132 114 96 80 63
47 32 18 6 0 0 0
519 533 549 563 573 580 585 584 580 572
559 540 517 484 450 413 376 339 305 273
244 218 195 172 150 131 112 94 77 61
45 31 18 6 0 0 0
519 533 548 561 571 578 581 580 575 566
553 535 512 482 448 411 375 338 303 270
242 216 192 169 148 128 109 91 74 58
43 30 17 6 0 0 0
519 533 547 559 568 574 577 575 570 561
547 529 506 478 444 408 371 334 300 267
238 211 188 166 144 124 104 87 70 55
41 28 16 6 0 0 0
519 532 546 557 565 570 572 570 564 554
540 521 498 471 439 403 366 330 295 263
233 207 183 161 139 118 99 82 67 52
39 26 15 6 0 0 0
519 531 544 554 562 566 567 564 557 546
531 512 489 461 432 396 360 324 290 257
228 201 177 154 133 113 95 78 63 49
36 25 14 6 0 0 0
519 531 543 552 558 561 561 557 549 537
521 501 478 450 420 389 353 317 283 251
222 195 170 147 126 107 90 74 59 46
34 23 13 6 1 0 0
519 530 541 549 554 556 555 550 541 528
510 490 465 437 407 376 343 309 275 243
214 187 162 140 120 101 84 69 55 43
31 21 12 5 0 0 0
519 529 539 546 550 551 548 542 531 517
499 477 451 423 393 361 329 297 265 234
205 178 153 131 112 94 78 64 51 39
27 18 10 3 0 0 0
519 528 536 542 545 545 541 533 521 506
487 463 437 408 378 346 314 283 252 223
194 167 143 122 103 86 71 57 45 34
24 15 8 3 0 0 0
519 528 534 539 540 539 534 525 512 495
474 449 423 393 362 330 299 268 237 208
181 155 132 111 93 77 63 51 39 29
20 13 6 2 0 0 0
519 526 532 535 535 533 526 516 502 483
461 435 408 378 347 315 283 252 222 193
166 142 119 100 83 68 55 44 34 25
17 10 5 2 0 0 0
519 525 529 531 530 526 519 507 492 472
449 422 393 363 332 300 268 237 208 179
153 129 107 88 73 60 49 39 30 22
15 9 4 1 0 0 0
519 525 527 527 525 520 511 498 482 461
437 409 380 349 317 285 254 223 194 166
140 117 96 79 66 54 44 34 26 19
12 7 3 1 0 0 0
519 523 524 523 519 513 503 490 472 450
425 397 368 336 305 273 242 211 182 154
129 106 88 72 60 49 39 30 23 16
10 6 3 1 0 0 0
519 522 521 518 513 506 495 480 462 440
414 386 356 325 293 262 231 201 172 145
121 99 82 66 55 44 35 27 20 14
9 5 2 1 0 0 0
519 518 509 498 486 472 456 438 418 395
370 343 316 287 258 229 200 172 147 124
103 83 65 50 38 28 20 13 7 3
1 1 0 0 0 0 0
519 514 497 480 461 442 421 401 379 357
333 309 284 258 232 207 184 161 139 118
98 76 54 33 20 10 4 3 2 2
1 1 0 0 0 0 0
519 511 490 467 444 421 397 374 351 328
306 284 264 245 225 204 185 164 142 113
80 50 30 12 7 5 4 3 2 2
1 1 1 0 0 0 0
519 510 487 463 438 413 389 365 341 318
297 277 261 243 226 210 192 170 139 99
63 39 18 9 6 4 3 2 2 1
1 0 0 0 0 0 0
