IESNA:LM-63-2002
[TEST]P13210
[TESTLAB]PEACHTREE CITY
[ISSUEDATE]03/21/12
[MANUFAC]COOPER LIGHTING - PORTFOLIO
[LUMCAT]CSQ6142E-6CSQWW1H
[LUMINAIRE]PORTFOLIO 6 INCH SQUARE CFL 55 DEGREE CUTOFF RECESSED WALL WASH LUMINAIRE
[MORE]WITH SEMI-SPECULAR CLEAR TRIM
[_MOUNTING]RECESSED
TILT=NONE
1 2400 1 37 23 1 1 0.5 0.5 0
1 1 35.6
0 2.5 5 7.5 10 12.5 15 17.5 20 22.5
25 27.5 30 32.5 35 37.5 40 42.5 45 47.5
50 52.5 55 57.5 60 62.5 65 67.5 70 72.5
75 77.5 80 82.5 85 87.5 90
0 5 10 15 20 25 30 35 40 45
50 55 60 65 70 75 80 85 90 112.5
135 157.5 180
438 450 466 480 493 503 510 514 513 508
498 484 462 433 402 369 336 304 275 250
228 208 189 170 153 137 121 106 90 75
59 41 24 8 0 0 0
438 450 466 480 492 503 510 514 513 508
498 483 461 433 402 369 336 304 275 249
227 207 189 170 153 137 122 106 90 75
58 41 24 8 0 0 0
438 450 465 479 492 502 509 513 512 506
497 482 461 433 402 369 336 304 275 249
227 207 188 170 153 137 121 105 89 74
57 40 23 8 0 0 0
438 450 465 479 491 501 508 511 510 505
495 480 461 432 402 370 337 305 275 248
225 205 187 168 151 135 119 104 88 72
56 39 23 8 0 0 0
438 450 464 478 489 499 506 509 508 502
493 478 460 432 403 371 338 305 275 247
223 203 184 166 149 133 117 101 86 70
54 38 22 8 1 0 0
438 449 463 476 488 497 503 506 505 499
490 475 457 432 403 371 338 305 274 246
221 199 181 163 145 129 113 98 82 67
52 36 22 8 1 0 0
438 449 462 475 486 494 500 503 501 496
486 472 454 431 401 370 337 304 272 243
217 195 176 158 141 124 108 93 77 63
48 34 20 8 1 0 0
438 448 461 473 483 491 496 498 497 491
481 467 448 426 399 367 334 301 269 239
213 190 170 152 135 118 102 87 72 58
45 32 19 8 1 0 0
438 448 460 471 480 488 492 494 492 486
475 460 442 419 394 362 329 296 264 234
208 184 164 145 128 112 96 82 68 55
42 30 18 8 1 0 0
438 447 459 469 477 484 488 489 486 479
468 452 433 410 384 355 323 290 258 229
202 178 157 138 121 105 91 77 63 51
39 28 18 8 1 0 0
438 447 457 466 474 480 483 483 479 471
459 443 423 399 373 344 315 282 251 222
195 171 149 131 114 99 84 71 59 47
36 26 16 7 1 0 0
438 446 455 464 470 475 477 476 471 462
449 432 411 387 360 331 302 273 243 213
187 163 142 123 106 91 78 66 54 43
32 22 13 5 1 0 0
438 446 454 461 467 470 471 469 463 453
439 420 398 373 346 318 289 259 231 204
177 154 133 114 98 84 71 59 48 38
28 19 11 4 1 0 0
438 445 452 458 462 465 465 461 454 443
427 408 385 359 332 303 274 245 217 191
166 143 122 104 89 75 63 52 42 33
24 16 9 3 1 0 0
438 444 450 455 458 459 458 453 445 432
415 395 371 345 318 289 260 231 204 177
153 131 112 95 80 67 56 46 36 28
20 13 7 2 1 0 0
438 443 448 451 454 454 451 445 436 422
404 382 358 331 303 275 246 218 191 165
141 120 101 85 72 60 50 40 31 24
17 11 6 2 0 0 0
438 443 446 448 449 448 445 437 426 411
393 370 345 318 290 262 233 205 179 154
131 110 93 77 65 54 44 35 27 20
14 9 4 1 0 0 0
438 442 443 445 444 442 438 429 417 401
382 359 333 306 278 250 221 194 168 144
122 102 85 71 59 48 39 31 23 17
11 7 4 1 0 0 0
438 441 441 441 440 436 431 422 409 392
372 349 323 296 268 239 211 184 159 135
114 95 79 65 54 44 35 27 20 14
9 6 3 1 0 0 0
438 437 431 425 417 408 398 386 371 353
333 310 286 261 234 208 183 158 135 114
95 77 62 48 36 27 19 13 8 4
2 1 1 1 0 0 0
438 434 422 410 396 381 366 349 331 312
291 270 247 225 202 180 158 138 119 100
82 66 50 35 23 13 8 6 4 3
2 2 1 1 1 0 0
438 432 416 399 380 361 341 319 298 276
255 234 215 196 178 161 145 129 111 93
73 54 37 22 15 11 8 6 5 3
2 2 1 1 1 0 0
438 431 414 395 375 353 331 309 286 264
243 223 205 188 172 157 142 126 108 87
67 48 31 21 15 11 8 6 4 3
2 2 1 1 0 0 0
