IESNA:LM-63-2002
[TEST]P13226
[TESTLAB]PEACHTREE CITY
[ISSUEDATE]04/02/12
[MANUFAC]COOPER LIGHTING - PORTFOLIO
[LUMCAT]CSQ6118E-6CSQWW1LI
[LUMINAIRE]PORTFOLIO 6 INCH SQUARE CFL 55 DEGREE CUTOFF RECESSED WALL WASH LUMINAIRE
[MORE]WITH SPECULAR CLEAR TRIM
[_MOUNTING]RECESSED
TILT=NONE
1 1200 1 37 23 1 1 0.5 0.5 0
1 1 20.4
0 2.5 5 7.5 10 12.5 15 17.5 20 22.5
25 27.5 30 32.5 35 37.5 40 42.5 45 47.5
50 52.5 55 57.5 60 62.5 65 67.5 70 72.5
75 77.5 80 82.5 85 87.5 90
0 5 10 15 20 25 30 35 40 45
50 55 60 65 70 75 80 85 90 112.5
135 157.5 180
235 242 250 258 263 268 271 272 271 269
264 256 246 231 215 198 181 164 148 133
120 108 96 85 75 66 58 50 42 34
27 19 12 5 0 0 0
235 242 250 257 263 268 271 272 271 268
263 256 246 231 214 198 180 164 148 133
120 108 96 85 75 66 58 50 42 34
27 19 12 5 0 0 0
235 242 250 257 263 267 270 271 270 267
262 254 245 230 214 197 180 163 148 133
120 108 96 85 75 66 57 49 41 34
26 18 11 5 0 0 0
235 242 250 257 262 266 269 270 269 265
260 253 243 229 213 196 179 163 147 133
119 107 96 85 75 66 57 49 41 33
25 18 11 5 0 0 0
235 242 250 256 261 265 268 268 267 263
258 250 240 227 212 195 179 162 146 132
118 106 95 84 74 65 56 47 39 32
24 17 11 5 0 0 0
235 241 249 255 260 264 266 266 264 260
255 247 237 226 210 194 178 161 145 130
117 104 93 83 72 63 54 46 38 30
23 16 10 4 0 0 0
235 241 248 255 259 262 264 263 261 257
252 244 234 223 208 192 176 159 143 128
115 102 91 80 70 61 52 43 36 28
21 15 9 4 1 0 0
235 241 248 253 257 260 261 261 258 254
248 240 230 219 205 190 173 157 141 126
112 100 88 78 68 58 49 41 34 26
20 14 9 4 1 0 0
235 241 247 252 256 258 258 257 255 250
244 235 226 214 201 186 170 154 138 123
109 97 85 75 64 55 46 39 31 25
18 13 8 4 1 0 0
235 240 246 251 254 255 256 254 251 246
239 230 220 208 196 182 166 150 134 120
106 93 82 71 61 52 44 36 29 23
17 12 7 3 1 0 0
235 240 245 249 252 253 252 250 247 241
234 225 214 202 189 175 160 145 130 115
102 90 78 67 58 49 41 34 27 21
15 11 6 3 0 0 0
235 239 244 248 250 250 249 246 242 236
228 219 208 195 182 168 153 139 124 110
97 84 73 63 54 45 38 31 25 19
14 9 5 2 0 0 0
235 239 243 246 247 247 246 242 237 231
222 212 201 188 174 160 146 131 117 104
91 79 68 58 49 41 34 28 22 17
12 8 4 2 0 0 0
235 238 242 244 245 244 242 238 233 225
216 206 194 181 167 152 138 123 110 97
84 73 62 53 44 37 30 24 19 14
10 6 3 1 0 0 0
235 238 241 242 243 241 239 234 228 220
210 199 187 173 159 144 130 116 102 90
78 67 56 47 39 32 26 21 16 12
8 5 3 1 0 0 0
235 238 239 240 240 238 235 230 223 214
204 192 180 166 151 137 123 109 95 83
71 60 50 42 34 28 23 18 14 10
7 4 2 1 0 0 0
235 237 238 238 237 235 231 225 218 209
198 186 173 159 145 130 116 102 89 77
65 55 45 38 31 26 20 16 12 9
6 4 2 1 0 0 0
235 237 237 236 235 231 227 221 213 204
193 180 167 153 139 124 110 97 83 71
60 50 41 34 28 23 18 14 11 7
5 3 1 0 0 0 0
235 236 236 234 232 228 223 216 208 198
187 175 162 147 133 119 105 91 79 67
56 46 38 31 25 21 16 12 9 6
4 2 1 0 0 0 0
235 234 229 225 219 212 205 197 188 177
166 154 142 129 116 103 90 77 66 55
46 37 29 23 17 13 9 6 3 1
1 0 0 0 0 0 0
235 232 225 217 208 199 190 181 171 160
150 138 127 115 104 93 82 72 62 52
43 33 22 13 8 4 2 1 1 1
0 0 0 0 0 0 0
235 231 221 211 200 190 180 169 158 148
138 128 119 110 101 92 83 73 62 47
31 20 11 4 3 2 1 1 1 1
0 0 0 0 0 0 0
235 230 220 209 198 187 176 165 154 144
134 126 118 110 102 95 86 76 58 38
25 15 6 3 2 2 1 1 1 1
0 0 0 0 0 0 0
