IESNA:LM-63-2002
[TEST]P13218
[TESTLAB]PEACHTREE CITY
[ISSUEDATE]03/30/12
[MANUFAC]COOPER LIGHTING - PORTFOLIO
[LUMCAT]CSQ6142E-6CSQWW1H
[LUMINAIRE]PORTFOLIO 6 INCH SQUARE CFL 55 DEGREE CUTOFF RECESSED WALL WASH LUMINAIRE
[MORE]WITH SEMI-SPECULAR CLEAR TRIM
[_MOUNTING]RECESSED
TILT=NONE
1 3200 1 37 23 1 1 0.5 0.5 0
1 1 44.2
0 2.5 5 7.5 10 12.5 15 17.5 20 22.5
25 27.5 30 32.5 35 37.5 40 42.5 45 47.5
50 52.5 55 57.5 60 62.5 65 67.5 70 72.5
75 77.5 80 82.5 85 87.5 90
0 5 10 15 20 25 30 35 40 45
50 55 60 65 70 75 80 85 90 112.5
135 157.5 180
577 590 610 627 644 657 667 671 671 669
653 635 606 568 534 484 436 400 362 328
297 272 247 226 199 179 160 142 118 99
77 55 32 11 0 0 0
577 590 610 628 643 655 666 670 670 668
652 634 607 568 529 485 437 399 361 327
297 273 247 223 199 179 161 143 120 99
78 54 30 11 0 0 0
577 590 610 627 643 658 664 669 669 665
652 633 606 568 534 485 437 400 362 326
297 271 247 225 199 179 159 142 117 97
76 53 30 10 0 2 0
577 591 610 626 641 654 662 666 666 660
649 630 607 568 531 486 439 403 361 325
294 269 244 220 196 176 157 135 117 95
76 51 29 11 0 0 0
577 591 609 625 640 652 660 665 664 657
646 628 606 568 531 488 440 403 361 324
295 267 241 217 194 173 154 133 112 91
72 50 28 11 1 0 0
577 589 607 623 637 649 658 660 659 653
643 624 601 568 533 489 441 402 362 322
289 262 236 214 188 168 151 129 107 89
69 49 27 11 0 0 0
577 589 606 621 636 647 652 656 655 650
638 620 596 566 532 488 440 400 359 319
284 257 230 209 182 162 142 122 101 82
65 46 27 11 0 0 0
577 589 605 620 633 642 648 651 650 643
631 613 590 560 526 483 437 396 355 314
280 250 223 199 174 156 136 114 95 80
59 42 25 11 1 1 0
577 587 602 617 629 638 644 644 643 638
622 604 581 550 519 476 429 391 348 308
272 242 214 191 166 146 127 110 88 73
55 41 23 11 1 0 0
577 588 601 615 626 633 638 638 636 627
614 595 568 537 506 467 421 383 342 301
265 235 206 181 157 138 120 101 85 67
54 37 22 11 1 0 0
577 587 599 612 621 628 631 631 626 616
603 580 556 523 490 453 410 374 334 292
257 226 197 170 148 132 111 94 79 63
48 33 21 10 1 0 0
577 586 597 609 617 624 624 622 617 606
589 566 541 506 476 437 397 361 322 283
248 216 187 165 139 121 104 87 70 57
43 30 16 7 3 1 0
577 585 594 603 613 618 616 614 606 593
574 550 522 489 459 420 378 345 309 271
237 204 176 153 128 112 94 78 63 50
38 25 14 6 1 0 0
577 585 592 601 607 610 610 606 596 579
559 536 505 472 438 402 360 328 291 256
223 193 164 139 115 99 86 69 56 43
33 21 10 4 1 0 0
577 582 590 596 601 603 601 596 584 566
545 518 487 453 420 382 340 310 273 238
206 177 148 126 105 90 75 61 49 37
27 18 7 4 1 0 0
577 582 590 592 596 596 593 585 572 553
530 501 471 435 401 364 323 291 256 221
190 163 136 113 93 78 66 52 43 31
24 15 5 2 0 0 0
577 582 586 587 591 589 584 578 561 540
515 488 454 418 385 347 309 276 240 207
175 149 125 103 85 71 59 46 36 27
19 12 5 2 0 0 0
577 580 581 583 584 582 576 565 550 529
505 473 442 403 369 331 291 260 227 192
163 138 116 95 76 66 52 41 31 22
15 10 3 1 0 0 0
577 580 581 581 579 574 568 555 538 516
490 459 427 389 355 318 282 248 213 181
153 133 106 87 70 59 47 36 26 20
13 7 3 1 1 0 0
577 575 566 559 552 539 525 508 490 466
444 409 378 344 313 276 238 210 180 153
126 105 82 65 48 35 27 18 11 6
4 2 0 1 1 0 0
577 572 555 538 526 503 482 459 436 410
388 355 325 295 268 238 204 182 159 133
110 88 65 47 29 17 10 7 8 4
5 3 0 1 0 0 0
577 568 546 527 501 476 449 420 391 363
335 309 283 255 234 212 187 169 148 123
97 73 49 30 19 17 13 8 8 6
5 3 1 1 0 1 0
577 568 544 520 495 465 436 407 376 346
319 293 269 245 227 205 183 167 144 118
89 64 41 27 19 14 11 7 5 3
6 1 0 1 0 0 0
