IESNA:LM-63-2002
[TEST]P13227
[TESTLAB]PEACHTREE CITY
[ISSUEDATE]04/02/12
[MANUFAC]COOPER LIGHTING - PORTFOLIO
[LUMCAT]CSQ6118E-6CSQWW1H
[LUMINAIRE]PORTFOLIO 6 INCH SQUARE CFL 55 DEGREE CUTOFF RECESSED WALL WASH LUMINAIRE
[MORE]WITH SEMI-SPECULAR CLEAR TRIM
[_MOUNTING]RECESSED
TILT=NONE
1 1200 1 37 23 1 1 0.5 0.5 0
1 1 20.3
0 2.5 5 7.5 10 12.5 15 17.5 20 22.5
25 27.5 30 32.5 35 37.5 40 42.5 45 47.5
50 52.5 55 57.5 60 62.5 65 67.5 70 72.5
75 77.5 80 82.5 85 87.5 90
0 5 10 15 20 25 30 35 40 45
50 55 60 65 70 75 80 85 90 112.5
135 157.5 180
202 208 215 222 228 233 237 239 239 237
232 226 217 204 190 175 160 145 132 120
109 99 90 82 74 66 59 52 45 38
30 22 14 6 1 0 0
202 208 215 222 228 233 237 238 239 237
232 226 217 204 190 175 160 145 132 119
109 99 90 82 74 66 59 52 44 37
30 22 14 6 1 0 0
202 208 215 222 228 233 236 238 238 236
231 225 217 204 190 175 160 145 132 119
109 99 90 81 73 66 59 52 44 37
29 21 13 6 1 0 0
202 208 215 221 227 232 235 237 237 235
230 224 216 204 190 175 160 145 132 119
108 98 89 81 73 65 58 51 43 36
28 21 13 6 0 0 0
202 208 215 221 227 231 234 236 236 233
229 223 215 203 190 175 160 145 131 118
107 97 88 79 71 64 57 50 42 35
27 20 13 6 1 0 0
202 208 214 220 226 230 233 234 234 232
227 221 213 203 189 175 160 145 131 117
106 95 86 78 70 62 55 48 41 33
26 19 12 6 1 0 0
202 207 214 220 225 229 232 233 232 230
225 219 211 201 189 174 160 144 130 116
104 93 84 75 67 60 52 45 38 31
24 18 11 5 1 0 0
202 207 213 219 224 227 230 231 230 227
223 217 209 199 187 173 158 143 128 114
102 91 81 72 64 57 50 42 35 29
23 16 10 5 1 0 0
202 207 213 218 222 226 228 228 227 225
220 214 206 196 185 171 156 141 126 112
99 88 78 69 61 54 47 40 33 27
21 15 10 5 1 0 0
202 207 212 217 221 224 226 226 224 221
216 210 202 191 180 167 153 138 123 109
96 84 75 66 58 50 44 37 30 25
19 14 9 5 1 0 0
202 206 211 216 219 222 223 223 221 218
212 205 197 187 175 162 148 134 119 105
92 81 71 62 54 47 41 34 28 23
18 13 8 4 1 0 0
202 206 211 215 217 220 220 219 218 214
208 200 191 181 169 156 142 128 113 100
88 77 67 59 51 44 37 31 26 21
16 11 7 3 1 0 0
202 206 210 213 215 217 217 216 214 209
203 195 185 174 162 149 135 121 107 94
83 72 63 54 46 40 34 28 23 18
14 10 6 2 0 0 0
202 206 209 211 213 215 215 213 209 204
197 189 179 167 155 141 128 114 101 88
77 67 57 49 42 36 30 25 20 16
12 8 5 2 0 0 0
202 205 208 210 212 212 211 209 205 200
192 183 173 161 148 135 121 107 95 82
71 61 53 45 38 32 27 22 17 13
10 7 3 1 0 0 0
202 205 207 208 209 209 208 205 201 194
186 177 166 154 141 127 114 101 88 76
66 56 48 41 34 29 24 19 15 11
8 5 3 1 0 0 0
202 204 206 207 207 207 205 201 197 190
181 172 160 148 135 121 108 95 83 71
61 52 44 37 31 26 21 17 12 10
7 4 2 1 0 0 0
202 204 205 205 205 204 201 197 192 185
176 166 155 142 129 115 102 90 78 67
57 48 41 34 28 23 19 14 11 8
5 3 2 1 0 0 0
202 204 204 203 202 201 198 194 188 181
171 161 149 137 124 110 98 85 73 63
53 45 38 31 26 21 17 13 9 7
4 3 1 0 0 0 0
202 202 199 195 192 188 183 176 169 161
151 141 130 118 106 94 83 71 61 51
43 35 28 22 17 13 9 6 3 2
1 1 0 0 0 0 0
202 200 195 188 182 175 168 159 151 142
132 122 112 101 91 81 71 62 53 44
36 29 22 15 10 5 3 2 1 1
1 1 0 0 0 0 0
202 199 192 183 175 166 156 146 136 126
116 107 98 89 81 73 65 58 50 41
32 23 15 9 7 5 4 3 1 1
1 1 1 0 0 0 0
202 199 191 182 172 162 152 141 131 121
111 102 93 85 78 71 64 57 48 38
29 20 13 9 7 5 4 3 2 1
1 1 0 0 0 0 0
