IESNA:LM-63-2002
[TEST]P13217
[TESTLAB]PEACHTREE CITY
[ISSUEDATE]03/30/12
[MANUFAC]COOPER LIGHTING - PORTFOLIO
[LUMCAT]CSQ6142E-6CSQWW1LI
[LUMINAIRE]PORTFOLIO 6 INCH SQUARE CFL 55 DEGREE CUTOFF RECESSED WALL WASH LUMINAIRE
[MORE]WITH SPECULAR CLEAR TRIM
[_MOUNTING]RECESSED
TILT=NONE
1 3200 1 37 23 1 1 0.5 0.5 0
1 1 44.1
0 2.5 5 7.5 10 12.5 15 17.5 20 22.5
25 27.5 30 32.5 35 37.5 40 42.5 45 47.5
50 52.5 55 57.5 60 62.5 65 67.5 70 72.5
75 77.5 80 82.5 85 87.5 90
0 5 10 15 20 25 30 35 40 45
50 55 60 65 70 75 80 85 90 112.5
135 157.5 180
664 684 705 719 738 749 754 751 754 747
729 700 675 633 590 535 486 437 394 355
320 290 257 233 201 176 154 133 106 89
66 49 30 8 0 0 0
664 682 707 716 737 748 753 753 754 745
729 700 675 632 583 534 486 438 393 356
320 293 258 227 200 178 154 132 107 89
66 49 28 8 2 1 0
664 682 704 716 736 747 751 752 751 743
726 699 672 631 583 533 487 437 392 354
319 291 258 227 201 179 153 129 104 87
63 47 27 8 0 1 0
664 682 702 716 735 745 750 746 749 739
724 692 671 629 581 533 487 438 392 354
319 289 257 226 199 175 150 129 102 84
60 44 25 7 2 1 0
664 685 701 714 733 743 746 744 743 736
718 687 665 625 584 533 485 437 391 353
315 284 254 225 196 171 148 126 101 80
57 42 24 8 0 1 0
664 681 702 712 732 739 742 738 737 731
712 681 660 623 577 531 483 434 389 348
312 280 250 221 193 168 143 123 95 76
56 44 23 9 1 1 0
664 679 700 710 726 735 736 732 731 720
703 674 652 618 575 525 480 431 384 345
306 275 244 217 188 162 139 115 90 73
54 40 23 8 1 1 0
664 680 697 707 723 729 731 725 722 713
694 664 643 608 565 518 478 425 380 337
301 268 237 208 182 160 131 109 85 72
48 36 22 8 1 1 0
664 679 695 704 719 724 724 718 715 707
684 653 629 595 557 511 465 418 373 332
293 262 229 200 173 149 125 107 80 65
45 34 21 7 0 1 0
664 677 693 701 716 717 717 709 705 695
671 639 615 581 540 500 456 409 364 325
286 252 220 192 166 140 118 99 76 60
41 32 19 6 1 1 0
664 677 690 697 709 712 710 699 695 681
657 623 599 563 528 483 443 399 355 315
277 243 211 183 156 132 112 92 69 55
38 28 16 6 1 1 0
664 675 688 694 705 707 702 690 684 666
644 608 583 545 506 466 426 384 344 304
266 233 200 170 145 123 103 83 63 50
35 24 14 4 1 0 0
664 675 687 688 698 698 692 684 670 652
626 590 562 526 486 445 407 366 326 290
253 219 188 158 134 112 94 75 57 43
29 19 11 2 0 2 0
664 673 683 684 693 690 684 669 658 638
611 571 544 507 468 426 387 348 309 271
236 204 174 145 121 102 82 67 48 37
24 17 8 2 0 0 0
664 674 680 678 686 684 674 658 645 622
593 555 524 487 448 407 369 328 290 256
219 187 157 130 108 88 72 59 42 32
20 15 7 1 0 0 0
664 672 676 674 680 678 666 647 633 610
578 536 506 469 429 388 349 309 271 236
201 170 141 118 95 78 64 51 36 27
15 12 7 0 0 1 0
664 670 672 669 672 667 654 635 619 593
562 520 490 451 409 369 331 291 252 218
183 154 126 103 84 69 56 45 31 24
15 10 4 1 0 1 0
664 670 669 664 664 657 645 623 608 580
547 505 473 435 395 352 315 274 237 203
169 141 114 96 76 63 51 39 26 19
11 7 4 0 0 1 0
664 668 668 659 659 648 634 614 596 567
532 491 464 421 379 338 301 262 224 189
157 136 106 86 70 58 45 34 22 16
8 7 4 1 0 2 0
664 662 650 631 622 605 583 558 537 511
477 436 406 371 335 294 258 222 188 160
132 107 84 67 49 37 26 19 5 3
0 2 0 0 1 1 0
664 657 635 607 591 567 539 509 487 463
430 391 365 332 302 265 235 206 178 151
124 98 68 45 25 11 5 4 0 1
0 1 3 0 0 1 0
664 653 626 593 568 540 508 475 451 422
394 359 339 315 289 261 238 211 182 144
97 63 36 16 9 6 5 4 0 1
0 1 0 0 0 1 0
664 652 621 585 559 529 497 461 438 411
382 348 334 311 289 268 246 218 177 123
77 48 21 10 7 5 3 4 0 0
2 0 0 2 0 0 0
