IESNA:LM-63-1995
[TEST]     20056
[MANUFAC]COOPER LIGHTING - SHAPER                                
[LUMCAT]673-12-CF1/18                                                                   
[LUMINAIRE]INTERIOR WALL MOUNT LUMINAIRE WITH WHITE INTERIOR AND WHITE PLASTIC LENS                                      
[LAMP]ONE GE 18 WATT CPFL LAMPS                                                       
[LAMPCAT]FT18W/RS/841. LUMEN RATING = 1250 LMS.                                          
[OTHER]ONE K-TRONIC KT-T8-232/IS/MVP BALLAST OPERATING AT 120 VAC AND 25 WATTS         
TILT=NONE
1
      1250
1
73
17
1
1
  0.17
  0.46
  0.94
1
1
   25.0000
0 2.5 5 7.5 10 12.5 15 17.5 20 22.5 25 27.5 30 32.5 35 37.5
40 42.5 45 47.5 50 52.5 55 57.5 60 62.5 65 67.5 70 72.5 75
77.5 80 82.5 85 87.5 90 92.5 95 97.5 100 102.5 105 107.5 110
112.5 115 117.5 120 122.5 125 127.5 130 132.5 135 137.5 140
142.5 145 147.5 150 152.5 155 157.5 160 162.5 165 167.5 170
172.5 175 177.5 180
0 22.5 45 67.5 90 112.5 135 157.5 180 202.5 225 247.5
270 292.5 315 337.5 360
       0.0        0.0        1.2        8.5       17.5       26.0       35.2       44.0       53.1       62.3
      71.6       81.2       90.8      100.7      110.0      119.5      128.7      138.0      146.7      154.9
     163.8      171.8      179.3      186.6      194.0      200.6      206.9      212.5      217.6      221.7
     225.7      230.0      232.8      234.6      236.6      238.5      239.2      237.5      237.4      236.3
     234.8      232.7      229.0      225.7      221.6      216.9      211.9      206.3      200.3      193.9
     186.5      179.3      171.8      164.1      155.6      146.9      138.1      129.3      119.5      111.0
     101.6       92.1       82.6       72.9       64.1       54.8       45.8       36.5       28.3       19.9
      11.1        2.1        0.0
       0.0        0.0        1.2        7.6       16.3       24.3       31.8       40.4       48.5       57.6
      65.9       75.1       83.6       92.0      100.5      109.9      118.4      126.6      134.7      142.5
     150.4      157.5      164.8      171.4      177.8      183.6      189.6      194.7      199.2      203.6
     207.2      210.2      212.2      215.1      216.6      217.4      218.0      218.8      217.7      216.9
     215.7      213.3      210.9      207.7      203.8      199.6      194.7      189.7      184.2      177.7
     171.5      164.0      157.0      149.7      141.9      134.2      126.4      118.1      109.9      101.1
      92.6       84.5       75.7       66.6       59.1       50.4       42.5       34.4       26.6       18.2
      10.7        2.7        0.0
       0.0        0.0        0.4        6.5       12.8       18.3       25.7       32.0       38.2       45.2
      52.3       59.0       66.2       73.4       80.2       86.4       93.1      100.4      106.8      113.0
     118.5      124.4      130.7      135.9      141.1      145.9      149.9      154.0      158.0      160.8
     163.7      166.8      168.8      170.4      171.6      172.1      172.9      174.1      174.0      173.1
     171.6      170.1      167.3      164.8      161.8      158.2      154.5      149.9      145.5      141.1
     135.6      129.9      124.5      119.0      113.0      106.8      100.2       93.8       86.9       80.5
      73.6       66.6       59.8       52.8       46.8       40.1       33.6       27.1       20.5       14.5
       7.9        2.1        0.0
       0.0        0.0        0.0        3.1        7.8       11.8       16.0       20.1       24.5       28.7
      32.9       38.2       42.7       47.3       51.8       55.7       60.1       65.1       69.3       73.3
      76.9       80.7       84.9       88.4       91.7       94.8       97.2       99.9      102.8      104.9
     106.7      108.6      109.9      110.9      111.6      111.5      111.8      115.3      115.2      114.5
     113.7      112.6      110.5      108.7      106.5      103.9      101.9       98.7       95.6       92.4
      88.9       85.5       81.5       77.9       73.9       69.6       65.5       60.9       56.8       52.1
      47.6       43.4       39.0       34.3       30.3       25.9       21.3       16.8       13.3        8.9
       5.0        1.8        0.0
       0.0        0.0        0.2        1.2        3.7        6.0        7.9       10.2       12.3       14.7
      17.1       19.5       21.5       24.4       26.5       29.1       31.3       33.4       35.8       38.0
      40.2       42.2       44.0       45.7       47.7       49.2       50.9       52.0       53.1       54.4
      55.2       55.8       56.8       56.9       57.4       57.7       57.8       61.3       61.1       60.4
      59.8       58.8       58.0       56.5       55.3       54.2       52.7       51.2       49.1       47.5
      45.4       43.6       41.3       39.4       37.1       34.8       32.6       30.3       27.8       25.7
      23.1       21.2       18.6       16.6       14.1       12.0        9.7        7.6        5.3        3.8
       2.3        1.7        0.0
       0.0        0.0        0.0        0.0        0.5        0.7        2.1        2.6        3.8        4.2
       5.1        6.6        7.3        8.3        8.8        9.8       10.5       12.1       13.0       13.6
      14.6       15.0       16.2       16.4       17.5       17.9       18.5       19.3       20.0       20.4
      20.8       21.0       21.2       21.5       21.2       21.7       21.2       23.7       23.7       23.2
      23.4       22.6       22.3       22.1       21.3       21.2       20.4       19.8       18.6       18.2
      17.2       16.3       15.7       14.7       13.8       13.0       12.2       11.7       10.6        9.9
       8.9        7.5        7.2        6.3        5.4        4.0        3.7        2.6        2.0        1.5
       0.7        0.7        0.0
       0.0        0.0        0.0        0.0        0.0        0.0        0.0        0.0        0.0        0.0
       0.0        0.0        0.0        0.0        0.0        0.0        0.0        0.1        0.3        0.4
       0.4        0.7        0.3        0.8        0.8        1.1        1.2        1.2        0.8        0.9
       1.1        1.2        1.4        1.3        1.6        1.1        1.4        3.2        3.5        3.0
       3.4        3.2        2.9        3.1        2.8        3.2        3.1        2.9        2.2        2.2
       2.5        2.0        2.3        1.8        2.2        2.0        2.0        1.7        1.6        1.0
       1.3        0.7        1.0        1.0        0.7        0.8        0.8        0.2        0.6        0.7
       0.7        0.5        0.0
       0.0        0.0        0.0        0.0        0.0        0.0        0.0        0.0        0.0        0.0
       0.0        0.0        0.0        0.0        0.0        0.0        0.0        0.0        0.0        0.0
       0.0        0.0        0.0        0.0        0.0        0.0        0.0        0.0        0.0        0.0
       0.0        0.0        0.0        0.0        0.0        0.0        0.0        0.0        0.0        0.0
       0.0        0.0        0.0        0.0        0.0        0.0        0.0        0.0        0.0        0.0
       0.0        0.0        0.0        0.0        0.0        0.0        0.0        0.0        0.0        0.0
       0.0        0.0        0.0        0.0        0.0        0.0        0.0        0.0        0.0        0.0
       0.0        0.0        0.0
       0.0        0.0        0.0        0.0        0.0        0.0        0.0        0.0        0.0        0.0
       0.0        0.0        0.0        0.0        0.0        0.0        0.0        0.0        0.0        0.0
       0.0        0.0        0.0        0.0        0.0        0.0        0.0        0.0        0.0        0.0
       0.0        0.0        0.0        0.0        0.0        0.0        0.0        0.0        0.0        0.0
       0.0        0.0        0.0        0.0        0.0        0.0        0.0        0.0        0.0        0.0
       0.0        0.0        0.0        0.0        0.0        0.0        0.0        0.0        0.0        0.0
       0.0        0.0        0.0        0.0        0.0        0.0        0.0        0.0        0.0        0.0
       0.0        0.0        0.0
       0.0        0.0        0.0        0.0        0.0        0.0        0.0        0.0        0.0        0.0
       0.0        0.0        0.0        0.0        0.0        0.0        0.0        0.0        0.0        0.0
       0.0        0.0        0.0        0.0        0.0        0.0        0.0        0.0        0.0        0.0
       0.0        0.0        0.0        0.0        0.0        0.0        0.0        0.0        0.0        0.0
       0.0        0.0        0.0        0.0        0.0        0.0        0.0        0.0        0.0        0.0
       0.0        0.0        0.0        0.0        0.0        0.0        0.0        0.0        0.0        0.0
       0.0        0.0        0.0        0.0        0.0        0.0        0.0        0.0        0.0        0.0
       0.0        0.0        0.0
       0.0        0.0        0.0        0.0        0.0        0.0        0.0        0.0        0.0        0.0
       0.0        0.0        0.0        0.0        0.0        0.0        0.0        0.1        0.3        0.4
       0.4        0.7        0.3        0.8        0.8        1.1        1.2        1.2        0.8        0.9
       1.1        1.2        1.4        1.3        1.6        1.1        1.4        3.2        3.5        3.0
       3.4        3.2        2.9        3.1        2.8        3.2        3.1        2.9        2.2        2.2
       2.5        2.0        2.3        1.8        2.2        2.0        2.0        1.7        1.6        1.0
       1.3        0.7        1.0        1.0        0.7        0.8        0.8        0.2        0.6        0.7
       0.7        0.5        0.0
       0.0        0.0        0.0        0.0        0.5        0.7        2.1        2.6        3.8        4.2
       5.1        6.6        7.3        8.3        8.8        9.8       10.5       12.1       13.0       13.6
      14.6       15.0       16.2       16.4       17.5       17.9       18.5       19.3       20.0       20.4
      20.8       21.0       21.2       21.5       21.2       21.7       21.2       23.7       23.7       23.2
      23.4       22.6       22.3       22.1       21.3       21.2       20.4       19.8       18.6       18.2
      17.2       16.3       15.7       14.7       13.8       13.0       12.2       11.7       10.6        9.9
       8.9        7.5        7.2        6.3        5.4        4.0        3.7        2.6        2.0        1.5
       0.7        0.7        0.0
       0.0        0.0        0.2        1.2        3.7        6.0        7.9       10.2       12.3       14.7
      17.1       19.5       21.5       24.4       26.5       29.1       31.3       33.4       35.8       38.0
      40.2       42.2       44.0       45.7       47.7       49.2       50.9       52.0       53.1       54.4
      55.2       55.8       56.8       56.9       57.4       57.7       57.8       61.3       61.1       60.4
      59.8       58.8       58.0       56.5       55.3       54.2       52.7       51.2       49.1       47.5
      45.4       43.6       41.3       39.4       37.1       34.8       32.6       30.3       27.8       25.7
      23.1       21.2       18.6       16.6       14.1       12.0        9.7        7.6        5.3        3.8
       2.3        1.7        0.0
       0.0        0.0        0.0        3.1        7.8       11.8       16.0       20.1       24.5       28.7
      32.9       38.2       42.7       47.3       51.8       55.7       60.1       65.1       69.3       73.3
      76.9       80.7       84.9       88.4       91.7       94.8       97.2       99.9      102.8      104.9
     106.7      108.6      109.9      110.9      111.6      111.5      111.8      115.3      115.2      114.5
     113.7      112.6      110.5      108.7      106.5      103.9      101.9       98.7       95.6       92.4
      88.9       85.5       81.5       77.9       73.9       69.6       65.5       60.9       56.8       52.1
      47.6       43.4       39.0       34.3       30.3       25.9       21.3       16.8       13.3        8.9
       5.0        1.8        0.0
       0.0        0.0        0.4        6.5       12.8       18.3       25.7       32.0       38.2       45.2
      52.3       59.0       66.2       73.4       80.2       86.4       93.1      100.4      106.8      113.0
     118.5      124.4      130.7      135.9      141.1      145.9      149.9      154.0      158.0      160.8
     163.7      166.8      168.8      170.4      171.6      172.1      172.9      174.1      174.0      173.1
     171.6      170.1      167.3      164.8      161.8      158.2      154.5      149.9      145.5      141.1
     135.6      129.9      124.5      119.0      113.0      106.8      100.2       93.8       86.9       80.5
      73.6       66.6       59.8       52.8       46.8       40.1       33.6       27.1       20.5       14.5
       7.9        2.1        0.0
       0.0        0.0        1.2        7.6       16.3       24.3       31.8       40.4       48.5       57.6
      65.9       75.1       83.6       92.0      100.5      109.9      118.4      126.6      134.7      142.5
     150.4      157.5      164.8      171.4      177.8      183.6      189.6      194.7      199.2      203.6
     207.2      210.2      212.2      215.1      216.6      217.4      218.0      218.8      217.7      216.9
     215.7      213.3      210.9      207.7      203.8      199.6      194.7      189.7      184.2      177.7
     171.5      164.0      157.0      149.7      141.9      134.2      126.4      118.1      109.9      101.1
      92.6       84.5       75.7       66.6       59.1       50.4       42.5       34.4       26.6       18.2
      10.7        2.7        0.0
       0.0        0.0        1.2        8.5       17.5       26.0       35.2       44.0       53.1       62.3
      71.6       81.2       90.8      100.7      110.0      119.5      128.7      138.0      146.7      154.9
     163.8      171.8      179.3      186.6      194.0      200.6      206.9      212.5      217.6      221.7
     225.7      230.0      232.8      234.6      236.6      238.5      239.2      237.5      237.4      236.3
     234.8      232.7      229.0      225.7      221.6      216.9      211.9      206.3      200.3      193.9
     186.5      179.3      171.8      164.1      155.6      146.9      138.1      129.3      119.5      111.0
     101.6       92.1       82.6       72.9       64.1       54.8       45.8       36.5       28.3       19.9
      11.1        2.1        0.0
