IESNA:LM-63-1995
[TEST]     16788
[MANUFAC]COOPER LIGHTING - SHAPER                                         
[LUMCAT]673-CF2/27-120SSB-NA                                                            
[LUMINAIRE]WALL MOUNT LUMINAIRE WITH WHITE INTERIOR AND CURVED WHITE PLASTIC LENS WITH OPEN TOP AND BOTTOM      
[LAMP]TWO GE 27 WATT CPFL LAMPS                                                       
[LAMPCAT]F27BX/SPX41/RS. LUMEN RATING = 3600 LMS.                                        
[OTHER]ONE ES-2CFH-26-120-A BALLAST OPERATING AT 120 VAC AND 48 WATTS                  
TILT=NONE
1
      3600
1
73
17
1
1
   .19
   .50
  1.27
1
1
   48.0000
0 2.5 5 7.5 10 12.5 15 17.5 20 22.5 25 27.5 30 32.5 35 37.5
40 42.5 45 47.5 50 52.5 55 57.5 60 62.5 65 67.5 70 72.5 75
77.5 80 82.5 85 87.5 90 92.5 95 97.5 100 102.5 105 107.5 110
112.5 115 117.5 120 122.5 125 127.5 130 132.5 135 137.5 140
142.5 145 147.5 150 152.5 155 157.5 160 162.5 165 167.5 170
172.5 175 177.5 180
0 22.5 45 67.5 90 112.5 135 157.5 180 202.5 225 247.5
270 292.5 315 337.5 360
      40.7       47.5       57.6       69.4       82.1       93.4      103.8      111.9      118.3      122.7
     125.0      125.8      125.7      125.2      124.4      123.5      122.6      122.2      122.0      121.9
     121.6      120.6      119.5      118.5      117.7      116.9      116.3      117.0      117.7      118.4
     118.9      120.5      122.3      123.5      124.3      125.3      126.0      125.1      124.6      124.2
     123.4      122.3      121.0      119.7      118.1      116.6      115.1      113.4      111.3      109.4
     107.7      106.2      104.8      103.7      102.7      101.7      101.0      100.2       99.4       98.6
      97.7       96.3       93.8       90.2       84.3       75.0       64.3       52.3       40.9       31.7
      23.1       14.2       12.2
      40.7       46.0       56.6       70.9       88.1      104.6      119.2      129.7      137.0      141.9
     144.6      145.9      146.9      147.7      149.0      150.6      151.9      153.4      155.0      156.8
     158.7      159.9      160.6      161.6      163.7      165.6      167.8      169.9      172.6      174.6
     176.7      179.4      182.0      183.8      186.7      189.6      192.8      194.6      193.9      192.7
     191.0      189.2      186.9      184.2      180.9      177.8      174.5      170.9      167.0      162.9
     158.7      154.2      150.3      146.9      143.8      141.5      139.6      138.0      136.6      135.3
     133.0      129.3      124.7      118.4      111.1      101.8       91.2       78.0       62.2       44.6
      28.9       15.4       12.2
      40.7       47.9       66.2       89.0      113.4      130.1      139.9      145.4      149.0      151.5
     153.3      154.5      156.1      158.9      162.1      166.0      170.1      174.3      178.4      182.7
     187.3      191.8      196.2      200.8      205.3      209.4      213.4      217.1      222.6      228.6
     233.5      237.0      239.5      243.6      245.6      246.4      249.0      247.6      246.7      245.1
     243.0      240.6      237.8      234.3      230.3      225.6      220.9      215.7      210.5      204.3
     198.3      191.8      185.2      178.2      171.7      164.8      158.3      152.1      145.5      139.3
     133.0      127.1      121.5      115.3      109.2      102.0       94.5       84.5       71.5       54.4
      35.9       18.9       12.2
      40.7       49.6       73.0       96.4      118.4      132.8      141.2      146.3      150.0      153.7
     157.2      161.4      166.6      172.2      177.8      184.4      191.4      198.7      206.3      214.2
     222.1      229.5      237.0      243.7      250.1      255.9      261.5      266.6      271.0      275.1
     278.3      281.3      284.2      286.5      288.1      290.0      291.2      291.7      291.3      289.7
     287.3      284.4      280.9      277.0      272.0      266.6      261.0      254.6      247.8      240.5
     232.7      224.4      215.9      207.1      198.1      189.2      179.3      170.1      160.2      149.6
     140.7      130.2      119.6      110.0      100.7       92.0       84.2       75.3       64.1       51.0
      37.8       20.8       12.2
      40.7       50.0       73.4       94.3      115.2      128.5      138.0      144.6      149.8      154.6
     159.9      166.0      172.6      179.6      186.7      195.0      203.7      213.0      222.3      231.8
     241.3      250.0      258.6      266.4      273.9      280.5      287.3      292.9      297.9      302.6
     306.6      310.3      313.6      316.3      318.2      318.7      319.4      314.5      310.2      304.3
     301.0      297.9      294.0      289.7      284.6      278.7      272.6      265.8      258.6      250.7
     242.4      233.5      224.4      214.7      205.1      195.0      184.6      174.3      163.5      153.3
     142.7      131.8      120.0      109.4       99.3       90.1       82.9       76.1       67.6       56.6
      39.4       20.5       12.2
      40.7       49.6       73.0       96.4      118.4      132.8      141.2      146.3      150.0      153.7
     157.2      161.4      166.6      172.2      177.8      184.4      191.4      198.7      206.3      214.2
     222.1      229.5      237.0      243.7      250.1      255.9      261.5      266.6      271.0      275.1
     278.3      281.3      284.2      286.5      288.1      290.0      291.2      291.7      291.3      289.7
     287.3      284.4      280.9      277.0      272.0      266.6      261.0      254.6      247.8      240.5
     232.7      224.4      215.9      207.1      198.1      189.2      179.3      170.1      160.2      149.6
     140.7      130.2      119.6      110.0      100.7       92.0       84.2       75.3       64.1       51.0
      37.8       20.8       12.2
      40.7       47.9       66.2       89.0      113.4      130.1      139.9      145.4      149.0      151.5
     153.3      154.5      156.1      158.9      162.1      166.0      170.1      174.3      178.4      182.7
     187.3      191.8      196.2      200.8      205.3      209.4      213.4      217.1      222.6      228.6
     233.5      237.0      239.5      243.6      245.6      246.4      249.0      247.6      246.7      245.1
     243.0      240.6      237.8      234.3      230.3      225.6      220.9      215.7      210.5      204.3
     198.3      191.8      185.2      178.2      171.7      164.8      158.3      152.1      145.5      139.3
     133.0      127.1      121.5      115.3      109.2      102.0       94.5       84.5       71.5       54.4
      35.9       18.9       12.2
      40.7       46.0       56.6       70.9       88.1      104.6      119.2      129.7      137.0      141.9
     144.6      145.9      146.9      147.7      149.0      150.6      151.9      153.4      155.0      156.8
     158.7      159.9      160.6      161.6      163.7      165.6      167.8      169.9      172.6      174.6
     176.7      179.4      182.0      183.8      186.7      189.6      192.8      194.6      193.9      192.7
     191.0      189.2      186.9      184.2      180.9      177.8      174.5      170.9      167.0      162.9
     158.7      154.2      150.3      146.9      143.8      141.5      139.6      138.0      136.6      135.3
     133.0      129.3      124.7      118.4      111.1      101.8       91.2       78.0       62.2       44.6
      28.9       15.4       12.2
      40.7       47.5       57.6       69.4       82.1       93.4      103.8      111.9      118.3      122.7
     125.0      125.8      125.7      125.2      124.4      123.5      122.6      122.2      122.0      121.9
     121.6      120.6      119.5      118.5      117.7      116.9      116.3      117.0      117.7      118.4
     118.9      120.5      122.3      123.5      124.3      125.3      126.0      125.1      124.6      124.2
     123.4      122.3      121.0      119.7      118.1      116.6      115.1      113.4      111.3      109.4
     107.7      106.2      104.8      103.7      102.7      101.7      101.0      100.2       99.4       98.6
      97.7       96.3       93.8       90.2       84.3       75.0       64.3       52.3       40.9       31.7
      23.1       14.2       12.2
      40.7       49.6       61.8       74.4       86.4       97.6      106.9      111.9      113.4      112.3
     108.8      103.2       96.8       90.6       85.2       80.0       75.3       71.1       67.2       63.9
      61.0       58.6       56.4       54.7       53.1       52.1       51.3       50.8       50.2       49.8
      49.4       49.0       48.7       48.3       48.1       48.1       47.9       51.6       51.6       51.6
      51.7       51.7       51.7       51.6       51.6       51.3       51.3       51.3       51.6       51.7
      52.0       52.7       53.5       54.4       55.6       57.0       58.6       60.5       62.6       64.9
      67.6       70.0       72.0       73.6       73.6       70.7       64.7       55.8       44.8       32.6
      22.9       15.8       12.2
      40.7       49.6       61.8       73.2       82.3       88.5       91.2       90.4       87.1       82.1
      75.9       69.2       62.4       55.6       49.6       43.7       38.6       33.6       29.5       25.8
      22.5       19.7       17.4       15.2       13.3       11.5       10.0        8.7        7.5        6.3
       5.3        4.5        3.8        3.4        3.2        3.0        2.8        5.3        5.6        5.7
       6.1        6.7        7.3        8.0        8.8        9.6       10.4       11.4       12.5       13.9
      15.2       17.0       18.7       21.0       23.5       26.2       29.3       32.6       36.5       40.7
      45.7       50.8       56.4       60.5       62.8       62.2       59.5       53.9       45.6       34.7
      25.1       16.7       12.2
      40.7       49.0       60.6       67.6       70.0       71.1       71.1       70.7       68.4       64.3
      58.7       52.5       46.8       41.1       36.3       31.5       27.6       23.9       21.0       18.3
      16.2       14.2       12.5       11.0        9.4        8.0        6.7        5.6        4.4        3.2
       2.5        1.7        1.1         .7         .5         .5         .5         .5         .5         .5
        .7        1.1        1.8        2.5        3.2        4.0        4.9        6.0        6.9        8.3
       9.6       11.4       13.1       15.0       17.1       19.7       22.4       25.3       28.4       32.0
      36.3       40.7       45.7       50.2       54.7       57.0       55.6       51.7       45.0       34.7
      25.7       18.1       12.2
      40.7       47.9       58.6       64.7       66.5       65.7       63.9       62.4       59.5       55.5
      50.6       45.4       40.6       35.9       31.6       28.0       24.5       21.4       18.9       17.0
      15.0       13.3       11.7       10.4        9.1        7.9        6.5        5.6        4.4        3.4
       2.6        1.8        1.3         .9         .5         .5         .5         .5         .5         .5
        .9        1.3        1.8        2.6        3.4        4.2        4.9        6.0        6.9        8.0
       9.4       11.1       12.9       14.6       16.3       18.3       20.5       22.4       24.3       26.2
      28.9       31.9       35.0       37.8       40.3       42.2       42.2       40.7       38.2       32.6
      25.3       18.5       12.2
      40.7       49.0       60.6       67.6       70.0       71.1       71.1       70.7       68.4       64.3
      58.7       52.5       46.8       41.1       36.3       31.5       27.6       23.9       21.0       18.3
      16.2       14.2       12.5       11.0        9.4        8.0        6.7        5.6        4.4        3.2
       2.5        1.7        1.1         .7         .5         .5         .5         .5         .5         .5
        .7        1.1        1.8        2.5        3.2        4.0        4.9        6.0        6.9        8.3
       9.6       11.4       13.1       15.0       17.1       19.7       22.4       25.3       28.4       32.0
      36.3       40.7       45.7       50.2       54.7       57.0       55.6       51.7       45.0       34.7
      25.7       18.1       12.2
      40.7       49.6       61.8       73.2       82.3       88.5       91.2       90.4       87.1       82.1
      75.9       69.2       62.4       55.6       49.6       43.7       38.6       33.6       29.5       25.8
      22.5       19.7       17.4       15.2       13.3       11.5       10.0        8.7        7.5        6.3
       5.3        4.5        3.8        3.4        3.2        3.0        2.8        5.3        5.6        5.7
       6.1        6.7        7.3        8.0        8.8        9.6       10.4       11.4       12.5       13.9
      15.2       17.0       18.7       21.0       23.5       26.2       29.3       32.6       36.5       40.7
      45.7       50.8       56.4       60.5       62.8       62.2       59.5       53.9       45.6       34.7
      25.1       16.7       12.2
      40.7       49.6       61.8       74.4       86.4       97.6      106.9      111.9      113.4      112.3
     108.8      103.2       96.8       90.6       85.2       80.0       75.3       71.1       67.2       63.9
      61.0       58.6       56.4       54.7       53.1       52.1       51.3       50.8       50.2       49.8
      49.4       49.0       48.7       48.3       48.1       48.1       47.9       51.6       51.6       51.6
      51.7       51.7       51.7       51.6       51.6       51.3       51.3       51.3       51.6       51.7
      52.0       52.7       53.5       54.4       55.6       57.0       58.6       60.5       62.6       64.9
      67.6       70.0       72.0       73.6       73.6       70.7       64.7       55.8       44.8       32.6
      22.9       15.8       12.2
      40.7       47.5       57.6       69.4       82.1       93.4      103.8      111.9      118.3      122.7
     125.0      125.8      125.7      125.2      124.4      123.5      122.6      122.2      122.0      121.9
     121.6      120.6      119.5      118.5      117.7      116.9      116.3      117.0      117.7      118.4
     118.9      120.5      122.3      123.5      124.3      125.3      126.0      125.1      124.6      124.2
     123.4      122.3      121.0      119.7      118.1      116.6      115.1      113.4      111.3      109.4
     107.7      106.2      104.8      103.7      102.7      101.7      101.0      100.2       99.4       98.6
      97.7       96.3       93.8       90.2       84.3       75.0       64.3       52.3       40.9       31.7
      23.1       14.2       12.2
