IESNA:LM-63-1995
[TEST]     20055
[MANUFAC]COOPER LIGHTING - SHAPER                                
[LUMCAT]673-12-CF2/18                                                                   
[LUMINAIRE]INTERIOR WALL MOUNT LUMINAIRE WITH WHITE INTERIOR AND WHITE PLASTIC LENS                                      
[LAMP]TWO GE 18 WATT CPFL LAMPS                                                       
[LAMPCAT]FT18W/RS/841. LUMEN RATING = 2500 LMS.                                          
[OTHER]ONE K-TRONIC KT-T8-232/IS/MVP BALLAST OPERATING AT 120 VAC AND 32 WATTS         
TILT=NONE
1
      2500
1
73
17
1
1
  0.17
  0.46
  0.94
1
1
   32.0000
0 2.5 5 7.5 10 12.5 15 17.5 20 22.5 25 27.5 30 32.5 35 37.5
40 42.5 45 47.5 50 52.5 55 57.5 60 62.5 65 67.5 70 72.5 75
77.5 80 82.5 85 87.5 90 92.5 95 97.5 100 102.5 105 107.5 110
112.5 115 117.5 120 122.5 125 127.5 130 132.5 135 137.5 140
142.5 145 147.5 150 152.5 155 157.5 160 162.5 165 167.5 170
172.5 175 177.5 180
0 22.5 45 67.5 90 112.5 135 157.5 180 202.5 225 247.5
270 292.5 315 337.5 360
      35.0       35.4       45.6       64.9       87.5      106.0      121.9      135.8      150.6      162.9
     175.1      188.1      199.8      211.9      223.6      234.3      245.5      257.5      267.9      278.6
     289.5      301.0      312.2      322.1      332.7      342.1      349.7      358.4      365.4      371.6
     376.8      382.1      386.2      388.2      391.5      393.8      394.5      394.0      393.8      391.7
     387.3      383.1      379.2      372.1      364.9      356.5      347.7      337.8      327.8      315.3
     303.4      291.1      278.1      264.2      249.9      235.6      219.2      203.8      188.9      173.3
     157.7      140.7      123.7      105.8       89.1       69.6       50.3       30.2       15.1        4.4
       1.3        0.0        0.0
      35.0       33.8       46.6       66.4       87.3      104.5      120.4      134.2      147.7      158.7
     169.1      179.0      188.9      200.2      209.8      220.4      230.6      239.0      250.4      260.4
     268.7      277.8      288.4      297.3      305.2      313.7      321.9      328.6      334.9      339.0
     343.7      348.6      352.1      354.2      357.3      358.9      359.1      358.4      358.4      356.2
     352.6      348.4      343.9      338.3      331.2      323.5      315.3      305.4      296.0      284.3
     274.1      261.6      249.9      238.5      225.5      212.1      196.5      183.2      168.1      154.6
     138.9      124.8      107.4       91.2       74.0       55.2       36.7       20.8        7.3        1.3
       0.0        0.0        0.0
      35.0       35.7       47.4       65.1       82.6       97.7      111.8      123.3      133.4      142.0
     150.8      160.8      168.6      175.9      184.3      191.5      199.1      207.4      214.8      222.0
     229.6      236.3      242.1      249.4      255.1      260.4      266.0      271.0      275.4      279.2
     282.8      285.9      288.2      289.3      290.8      292.9      293.5      293.1      291.1      288.8
     287.7      284.1      279.4      273.4      269.2      262.4      254.8      247.3      239.4      229.6
     221.0      210.3      200.7      190.8      179.8      169.1      156.1      145.2      131.8      120.4
     106.3       91.7       74.7       58.4       43.2       26.8       13.6        4.2        0.7        0.0
       0.0        0.0        0.0
      35.0       35.7       45.4       62.0       79.0       96.9      111.2      123.7      136.3      144.3
     150.3      153.7      157.9      162.9      166.0      168.9      173.0      175.6      177.7      181.6
     185.3      188.4      192.0      195.1      197.5      199.8      202.5      204.0      205.1      207.2
     208.5      208.7      209.6      211.9      212.1      213.2      213.4      213.2      211.0      210.1
     208.5      205.9      202.5      198.9      193.1      188.1      182.6      178.0      172.0      165.2
     158.7      151.2      143.4      134.5      126.9      118.1      108.7       99.1       87.9       77.6
      65.7       55.7       43.2       32.0       21.6       11.7        4.4        0.5        0.0        0.0
       0.0        0.0        0.0
      35.0       37.3       48.2       62.9       75.8       86.9       99.2      107.5      114.0      119.5
     123.4      127.3      129.9      131.7      133.3      135.9      137.1      137.4      138.9      140.2
     140.1      140.1      141.7      141.6      141.3      141.0      140.2      138.8      138.6      137.7
     136.2      136.3      135.4      135.4      135.3      136.3      135.9      134.9      133.7      132.3
     131.9      129.4      126.8      124.3      121.4      118.7      114.5      111.4      107.1      102.4
      97.8       92.9       87.7       83.1       77.6       72.3       66.9       61.1       55.2       49.7
      43.9       38.3       31.7       26.0       18.5       12.1        6.7        1.9        0.0        0.0
       0.0        0.0        0.0
      35.0       39.3       50.3       59.7       70.1       76.1       81.0       83.9       85.5       86.8
      86.3       85.7       85.0       84.7       83.6       83.2       82.3       80.0       79.2       76.6
      75.3       72.9       71.6       69.6       68.7       66.9       66.2       64.4       62.2       62.0
      61.3       61.5       60.4       61.0       59.9       60.4       59.9       58.9       59.1       58.1
      57.9       55.7       55.5       53.9       53.4       50.8       50.5       48.7       46.9       45.0
      43.2       40.9       38.9       36.2       34.4       32.0       29.5       26.8       24.4       21.1
      19.7       15.9       13.6       11.7        7.8        5.8        1.8        0.0        0.0        0.0
       0.0        0.0        0.0
      35.0       41.2       50.1       55.7       59.4       61.5       62.0       60.7       61.0       58.1
      57.3       54.4       52.1       48.1       45.0       42.7       39.6       35.4       32.8       29.7
      26.3       23.0       20.8       17.7       16.4       14.1       13.0       11.2        9.6        9.6
       8.9        8.5        7.6        7.3        6.7        6.2        6.5        6.2        6.2        6.0
       6.0        5.8        5.8        5.2        5.2        3.8        3.6        3.1        3.8        2.6
       3.4        2.0        2.6        1.3        1.1        0.5        0.2        0.5        0.0        0.0
       0.0        0.0        0.0        0.0        0.0        0.0        0.0        0.0        0.0        0.0
       0.0        0.0        0.0
      35.0       42.0       51.3       58.1       60.4       62.0       61.3       59.1       57.0       54.4
      51.0       47.7       44.5       40.7       36.9       33.8       30.2       25.3       21.9       18.5
      16.7       13.8       11.4        9.6        7.3        6.0        3.8        3.4        2.9        0.7
       0.5        0.0        0.0        0.0        0.0        0.0        0.0        0.0        0.0        0.0
       0.0        0.0        0.0        0.0        0.0        0.0        0.0        0.0        0.0        0.0
       0.0        0.0        0.0        0.0        0.0        0.0        0.0        0.0        0.0        0.0
       0.0        0.0        0.0        0.0        0.0        0.0        0.0        0.0        0.0        0.0
       0.0        0.0        0.0
      35.0       45.8       55.7       59.4       62.8       62.6       61.3       59.4       55.5       53.4
      50.8       46.9       42.2       39.8       36.2       32.0       28.6       24.2       21.1       18.8
      14.8       12.7       11.4        9.6        7.0        5.8        5.8        4.7        3.6        2.0
       1.5        1.5        0.5        0.0        0.0        0.0        0.0        0.0        0.0        0.0
       0.0        0.0        0.0        0.0        0.0        0.0        0.0        0.0        0.0        0.0
       0.0        0.0        0.0        0.0        0.0        0.0        0.0        0.0        0.0        0.0
       0.0        0.0        0.0        0.0        0.0        0.0        0.0        0.0        0.0        0.0
       0.0        0.0        0.0
      35.0       42.0       51.3       58.1       60.4       62.0       61.3       59.1       57.0       54.4
      51.0       47.7       44.5       40.7       36.9       33.8       30.2       25.3       21.9       18.5
      16.7       13.8       11.4        9.6        7.3        6.0        3.8        3.4        2.9        0.7
       0.5        0.0        0.0        0.0        0.0        0.0        0.0        0.0        0.0        0.0
       0.0        0.0        0.0        0.0        0.0        0.0        0.0        0.0        0.0        0.0
       0.0        0.0        0.0        0.0        0.0        0.0        0.0        0.0        0.0        0.0
       0.0        0.0        0.0        0.0        0.0        0.0        0.0        0.0        0.0        0.0
       0.0        0.0        0.0
      35.0       41.2       50.1       55.7       59.4       61.5       62.0       60.7       61.0       58.1
      57.3       54.4       52.1       48.1       45.0       42.7       39.6       35.4       32.8       29.7
      26.3       23.0       20.8       17.7       16.4       14.1       13.0       11.2        9.6        9.6
       8.9        8.5        7.6        7.3        6.7        6.2        6.5        6.2        6.2        6.0
       6.0        5.8        5.8        5.2        5.2        3.8        3.6        3.1        3.8        2.6
       3.4        2.0        2.6        1.3        1.1        0.5        0.2        0.5        0.0        0.0
       0.0        0.0        0.0        0.0        0.0        0.0        0.0        0.0        0.0        0.0
       0.0        0.0        0.0
      35.0       39.3       50.3       59.7       70.1       76.1       81.0       83.9       85.5       86.8
      86.3       85.7       85.0       84.7       83.6       83.2       82.3       80.0       79.2       76.6
      75.3       72.9       71.6       69.6       68.7       66.9       66.2       64.4       62.2       62.0
      61.3       61.5       60.4       61.0       59.9       60.4       59.9       58.9       59.1       58.1
      57.9       55.7       55.5       53.9       53.4       50.8       50.5       48.7       46.9       45.0
      43.2       40.9       38.9       36.2       34.4       32.0       29.5       26.8       24.4       21.1
      19.7       15.9       13.6       11.7        7.8        5.8        1.8        0.0        0.0        0.0
       0.0        0.0        0.0
      35.0       37.3       48.2       62.9       75.8       86.9       99.2      107.5      114.0      119.5
     123.4      127.3      129.9      131.7      133.3      135.9      137.1      137.4      138.9      140.2
     140.1      140.1      141.7      141.6      141.3      141.0      140.2      138.8      138.6      137.7
     136.2      136.3      135.4      135.4      135.3      136.3      135.9      134.9      133.7      132.3
     131.9      129.4      126.8      124.3      121.4      118.7      114.5      111.4      107.1      102.4
      97.8       92.9       87.7       83.1       77.6       72.3       66.9       61.1       55.2       49.7
      43.9       38.3       31.7       26.0       18.5       12.1        6.7        1.9        0.0        0.0
       0.0        0.0        0.0
      35.0       35.7       45.4       62.0       79.0       96.9      111.2      123.7      136.3      144.3
     150.3      153.7      157.9      162.9      166.0      168.9      173.0      175.6      177.7      181.6
     185.3      188.4      192.0      195.1      197.5      199.8      202.5      204.0      205.1      207.2
     208.5      208.7      209.6      211.9      212.1      213.2      213.4      213.2      211.0      210.1
     208.5      205.9      202.5      198.9      193.1      188.1      182.6      178.0      172.0      165.2
     158.7      151.2      143.4      134.5      126.9      118.1      108.7       99.1       87.9       77.6
      65.7       55.7       43.2       32.0       21.6       11.7        4.4        0.5        0.0        0.0
       0.0        0.0        0.0
      35.0       35.7       47.4       65.1       82.6       97.7      111.8      123.3      133.4      142.0
     150.8      160.8      168.6      175.9      184.3      191.5      199.1      207.4      214.8      222.0
     229.6      236.3      242.1      249.4      255.1      260.4      266.0      271.0      275.4      279.2
     282.8      285.9      288.2      289.3      290.8      292.9      293.5      293.1      291.1      288.8
     287.7      284.1      279.4      273.4      269.2      262.4      254.8      247.3      239.4      229.6
     221.0      210.3      200.7      190.8      179.8      169.1      156.1      145.2      131.8      120.4
     106.3       91.7       74.7       58.4       43.2       26.8       13.6        4.2        0.7        0.0
       0.0        0.0        0.0
      35.0       33.8       46.6       66.4       87.3      104.5      120.4      134.2      147.7      158.7
     169.1      179.0      188.9      200.2      209.8      220.4      230.6      239.0      250.4      260.4
     268.7      277.8      288.4      297.3      305.2      313.7      321.9      328.6      334.9      339.0
     343.7      348.6      352.1      354.2      357.3      358.9      359.1      358.4      358.4      356.2
     352.6      348.4      343.9      338.3      331.2      323.5      315.3      305.4      296.0      284.3
     274.1      261.6      249.9      238.5      225.5      212.1      196.5      183.2      168.1      154.6
     138.9      124.8      107.4       91.2       74.0       55.2       36.7       20.8        7.3        1.3
       0.0        0.0        0.0
      35.0       35.4       45.6       64.9       87.5      106.0      121.9      135.8      150.6      162.9
     175.1      188.1      199.8      211.9      223.6      234.3      245.5      257.5      267.9      278.6
     289.5      301.0      312.2      322.1      332.7      342.1      349.7      358.4      365.4      371.6
     376.8      382.1      386.2      388.2      391.5      393.8      394.5      394.0      393.8      391.7
     387.3      383.1      379.2      372.1      364.9      356.5      347.7      337.8      327.8      315.3
     303.4      291.1      278.1      264.2      249.9      235.6      219.2      203.8      188.9      173.3
     157.7      140.7      123.7      105.8       89.1       69.6       50.3       30.2       15.1        4.4
       1.3        0.0        0.0
