IESNA:LM-63-2002
[TEST]P21907
[TESTLAB]Innovations Center P2
[ISSUEDATE]01/20/12
[MANUFAC] COOPER LIGHTING - HALO
[LUMCAT]PD8V142E-80VWWC_42TTT
[LUMINAIRE]HALO 8-INCH RECESSED CFL OPEN DOWNLIGHT FIXTURE IN "B"
[MORE]POSITION, VERTICAL LAMP. SPECULAR CLEAR REFLECTOR.
[LAMPCAT]CF42DT/E/IN/827/ECO
[LAMP](1) 42W CFL TTT
[BALLASTCAT]QTP2x26CF/UNV DM
[BALLAST](1) SYLVANIA ELECTRONIC BALLAST
[OTHER]INPUT WATTS:43.75, AMPS:0.3648, VOLTS:120.02, BALLAST FACTOR:
[MORE]1, HOURS OPERATED PRIOR TO TESTING: 3, STABILITY: 60 MIN,
[MORE]TOTAL OP TIME: 4 HRS AMB TEMP: 24.4 DEG C
[_MOUNTING]RECESSED
[_WARNING TEST]THIS TEST WAS PERFORMED USING A SPECIFIC BALLAST \ LAMP
[MORE]COMBINATION. EXTRAPOLATION OF THESE DATA FOR OTHER
[MORE]BALLAST\LAMP COMBINATIONS MAY PRODUCE ERRONEOUS RESULTS
[_WARNING BALLAST]NOTE: BALLAST(S) FACTOR SHOULD BE APPLIED TO TEST DATA FOR
[MORE]ALL CALCULATIONS
[_WARNING REALATIVE]RELATIVE PHOTOMETRY IS BASED ON RELATIONAL FACTORS CREATED
[MORE]USING MANUFACTURERS PUBLISHED DATA AND A BARE LAMP SUM FOR
[MORE]THE LAMP UNDER TEST IN GONIOPHOTOMETER WITH TEST DISTANCE OF
[MORE]28.75 FT
TILT=NONE
1 3200 1 37 37 1 1 -0.697917 -0.697917 0.1
1 1 43.8
0 2.5 5 7.5 10 12.5 15 17.5 20 22.5
25 27.5 30 32.5 35 37.5 40 42.5 45 47.5
50 52.5 55 57.5 60 62.5 65 67.5 70 72.5
75 77.5 80 82.5 85 87.5 90
0 5 10 15 20 25 30 35 40 45
50 55 60 65 70 75 80 85 90 95
100 105 110 115 120 125 130 135 140 145
150 155 160 165 170 175 180
1901 1919 1930 1888 1768 1613 1457 1296 1149 1021
905 814 737 667 608 556 506 459 415 374
334 297 264 230 194 165 143 121 97 73
45 28 20 14 8 5 0
1901 1920 1930 1890 1770 1603 1447 1285 1138 1013
900 808 730 662 604 553 504 457 413 372
332 296 263 228 193 164 143 121 97 74
46 29 21 14 9 6 0
1901 1923 1934 1896 1774 1594 1427 1268 1123 999
890 799 719 652 594 543 495 449 406 366
328 292 260 226 192 162 141 119 95 71
44 29 21 15 10 7 0
1901 1927 1938 1900 1774 1593 1420 1261 1119 996
886 795 716 648 591 541 494 449 407 369
331 295 262 228 193 163 142 119 95 71
45 28 21 14 9 6 0
1901 1929 1944 1899 1764 1586 1422 1264 1125 1005
894 803 725 658 600 552 501 458 415 379
340 303 268 234 199 167 145 121 96 70
43 27 20 13 8 4 0
1901 1932 1945 1890 1743 1573 1409 1266 1132 1013
904 811 730 661 602 552 503 457 417 378
340 305 269 235 200 167 144 120 95 67
41 26 19 12 7 4 0
1901 1933 1947 1890 1739 1560 1403 1263 1135 1018
914 818 735 665 606 555 505 461 420 381
343 307 271 236 200 167 143 119 93 65
40 26 19 13 8 6 0
1901 1932 1947 1891 1743 1567 1407 1270 1147 1033
923 826 742 675 615 562 513 465 419 382
344 307 271 235 199 166 142 117 91 64
39 26 18 12 8 5 0
1901 1930 1946 1895 1755 1582 1421 1285 1161 1046
944 851 764 691 628 572 519 470 425 384
346 309 272 236 199 165 140 115 89 62
37 25 18 12 7 5 0
1901 1928 1944 1900 1772 1612 1453 1316 1188 1069
957 860 774 700 634 579 523 472 427 385
346 309 270 235 195 163 138 113 87 60
36 24 17 11 7 5 0
1901 1925 1941 1905 1791 1632 1474 1334 1204 1090
978 879 792 714 648 591 535 483 436 394
353 313 270 229 191 159 132 108 83 56
33 22 15 10 6 4 0
1901 1920 1939 1910 1812 1663 1505 1363 1235 1117
1006 906 818 739 673 614 558 505 457 412
368 322 269 216 176 142 114 91 70 48
28 19 13 8 5 4 0
1901 1917 1937 1913 1819 1676 1518 1381 1256 1140
1031 934 846 767 699 638 579 524 473 423
373 323 259 195 152 119 92 71 53 36
21 14 10 6 4 3 0
1901 1914 1933 1915 1823 1678 1521 1383 1257 1142
1035 942 860 784 717 654 594 537 481 424
366 312 239 158 117 85 60 45 34 23
14 10 7 5 3 3 0
1901 1912 1931 1914 1829 1687 1525 1378 1247 1129
1021 928 847 772 706 646 587 530 475 417
357 299 216 124 84 55 31 20 15 11
8 6 5 3 3 2 0
1901 1913 1934 1918 1838 1696 1530 1378 1245 1126
1020 926 846 772 707 648 589 533 478 422
361 300 211 112 73 44 20 10 8 7
5 4 4 3 2 2 0
1901 1914 1942 1925 1838 1691 1526 1375 1244 1131
1029 938 861 790 729 671 615 560 506 446
382 317 220 117 76 44 18 9 7 6
4 4 3 2 2 2 0
1901 1916 1948 1925 1827 1671 1506 1356 1225 1115
1020 935 862 797 741 686 631 577 521 460
393 323 221 118 76 44 17 8 6 5
4 3 3 2 2 1 0
1901 1918 1952 1927 1819 1659 1495 1345 1212 1104
1012 933 867 809 754 701 644 587 527 465
397 323 218 117 76 44 17 8 6 5
4 3 3 2 1 1 0
1901 1919 1953 1929 1821 1664 1504 1355 1221 1114
1021 945 883 827 769 711 651 591 530 465
397 321 214 116 75 43 16 7 6 4
4 3 2 2 1 1 0
1901 1922 1952 1931 1828 1681 1529 1380 1244 1136
1044 966 898 834 773 714 652 591 530 464
395 318 210 115 74 43 16 7 6 4
4 3 2 1 1 1 0
1901 1925 1956 1931 1831 1693 1542 1389 1252 1142
1046 962 888 821 758 699 639 578 517 453
388 313 203 112 73 44 17 7 6 4
3 3 2 1 1 1 0
1901 1929 1963 1934 1830 1690 1539 1386 1249 1142
1049 967 893 826 764 705 643 582 520 455
388 310 199 110 72 42 15 7 5 4
3 3 2 1 1 1 0
1901 1934 1968 1935 1823 1670 1519 1364 1229 1127
1039 962 894 831 769 709 647 585 523 457
389 310 198 110 72 43 16 7 5 4
4 3 2 1 1 1 0
1901 1936 1972 1932 1819 1663 1506 1349 1214 1113
1025 950 885 825 766 710 645 587 522 461
394 315 203 112 74 43 16 7 6 4
4 3 2 1 1 1 0
1901 1937 1972 1940 1820 1668 1508 1356 1215 1118
1028 950 882 819 760 703 643 585 524 460
393 314 202 112 73 43 16 7 6 5
4 4 3 2 1 1 0
1901 1937 1969 1950 1840 1689 1528 1368 1230 1124
1027 947 871 805 749 692 631 579 517 457
390 313 201 112 73 42 16 8 7 5
5 4 3 2 2 2 0
1901 1936 1963 1952 1849 1697 1537 1377 1233 1122
1020 934 860 797 737 683 625 566 508 447
384 310 198 111 73 42 17 9 8 7
6 6 5 4 4 4 0
1901 1935 1959 1949 1853 1704 1545 1390 1247 1135
1033 948 874 809 753 696 637 576 513 454
388 312 200 113 74 43 18 11 9 8
8 8 7 6 6 6 0
1901 1935 1959 1943 1839 1696 1540 1389 1249 1139
1042 958 887 823 763 704 643 581 519 455
388 308 195 113 76 46 19 10 8 7
8 9 9 8 8 8 0
1901 1937 1962 1938 1832 1686 1535 1384 1244 1137
1044 965 894 828 767 708 646 584 521 456
389 308 194 111 76 44 18 11 11 11
9 8 7 6 6 9 0
1901 1939 1966 1946 1843 1691 1542 1392 1255 1147
1051 968 895 829 767 707 644 582 521 456
388 306 193 112 78 49 22 15 12 9
9 9 9 10 10 8 0
1901 1943 1976 1955 1843 1688 1536 1388 1250 1140
1039 954 881 816 757 698 637 577 517 453
386 305 192 116 78 49 24 16 15 14
14 14 10 7 6 7 0
1901 1947 1987 1962 1841 1682 1529 1382 1246 1135
1035 949 875 810 750 693 633 574 515 453
387 305 193 115 78 49 24 17 16 15
15 15 14 13 13 13 0
1901 1950 1995 1964 1833 1670 1519 1373 1240 1134
1039 958 887 824 764 706 647 589 527 460
392 310 197 118 80 49 24 17 16 16
16 16 15 14 14 14 0
1901 1952 2000 1963 1828 1660 1510 1363 1231 1126
1032 953 886 826 768 711 652 593 531 464
395 313 199 116 77 46 20 13 12 10
10 10 9 8 8 8 0
1901 1952 2001 1964 1827 1657 1508 1361 1228 1124
1028 950 883 825 767 710 650 592 530 464
396 314 201 119 81 49 24 18 17 16
16 16 15 14 15 15 0
