IESNA:LM-63-2002
[TEST]P21906
[TESTLAB]Innovations Center P2
[ISSUEDATE]01/20/12
[MANUFAC] COOPER LIGHTING - HALO
[LUMCAT]PD8V142E-80VWWC_32TTT
[LUMINAIRE]HALO 8-INCH RECESSED CFL OPEN DOWNLIGHT FIXTURE IN "a"
[MORE]POSITION, VERTICAL LAMP. SPECULAR CLEAR REFLECTOR.
[LAMPCAT]CF32DT/E/IN/827
[LAMP](1) 32W CFL TTT
[BALLASTCAT]QTP2x26CF/UNV DM
[BALLAST](1) SYLVANIA ELECTRONIC BALLAST
[OTHER]INPUT WATTS:32.10, AMPS:0.2678, VOLTS:120.02, BALLAST FACTOR:
[MORE]1, HOURS OPERATED PRIOR TO TESTING: 12, STABILITY: 60 MIN,
[MORE]TOTAL OP TIME: 13 HRS AMB TEMP: 24.6 DEG C
[_MOUNTING]RECESSED
[_WARNING TEST]THIS TEST WAS PERFORMED USING A SPECIFIC BALLAST \ LAMP
[MORE]COMBINATION. EXTRAPOLATION OF THESE DATA FOR OTHER
[MORE]BALLAST\LAMP COMBINATIONS MAY PRODUCE ERRONEOUS RESULTS
[_WARNING BALLAST]NOTE: BALLAST(S) FACTOR SHOULD BE APPLIED TO TEST DATA FOR
[MORE]ALL CALCULATIONS
[_WARNING REALATIVE]RELATIVE PHOTOMETRY IS BASED ON RELATIONAL FACTORS CREATED
[MORE]USING MANUFACTURERS PUBLISHED DATA AND A BARE LAMP SUM FOR
[MORE]THE LAMP UNDER TEST IN GONIOPHOTOMETER WITH TEST DISTANCE OF
[MORE]28.75 FT
TILT=NONE
1 2400 1 37 37 1 1 -0.697917 -0.697917 0.1
1 1 32.1
0 2.5 5 7.5 10 12.5 15 17.5 20 22.5
25 27.5 30 32.5 35 37.5 40 42.5 45 47.5
50 52.5 55 57.5 60 62.5 65 67.5 70 72.5
75 77.5 80 82.5 85 87.5 90
0 5 10 15 20 25 30 35 40 45
50 55 60 65 70 75 80 85 90 95
100 105 110 115 120 125 130 135 140 145
150 155 160 165 170 175 180
1217 1307 1304 1280 1232 1140 1027 922 829 748
679 625 580 540 501 465 429 393 359 326
294 263 232 203 168 145 126 108 89 64
36 25 17 11 6 2 0
1217 1212 1215 1201 1153 1069 963 863 777 703
635 582 540 502 466 433 400 366 335 305
276 246 218 189 158 134 117 100 82 59
33 22 15 10 5 2 0
1217 1214 1217 1207 1148 1060 959 860 773 699
631 576 532 496 461 427 395 362 332 304
275 246 218 189 158 134 117 99 82 58
33 22 15 10 5 2 0
1217 1219 1225 1217 1155 1055 961 868 783 708
639 584 540 503 468 435 403 370 340 311
282 252 223 195 162 138 120 102 82 57
32 22 15 9 5 1 0
1217 1221 1229 1222 1156 1053 957 870 788 713
644 589 544 506 471 438 406 374 345 317
287 257 227 197 165 139 120 101 81 55
31 21 14 9 4 1 0
1217 1221 1231 1221 1150 1048 951 868 791 719
650 594 547 508 472 439 407 376 348 319
289 260 230 199 167 140 121 101 80 53
31 21 14 8 4 1 0
1217 1218 1230 1217 1145 1041 946 868 796 726
656 597 548 508 472 439 407 376 347 318
290 260 230 199 167 140 120 100 78 51
30 20 13 8 4 1 0
1217 1222 1236 1220 1152 1049 953 877 807 739
667 605 554 515 479 445 412 380 349 320
291 262 231 200 167 139 119 99 76 50
29 20 13 7 3 1 0
1217 1222 1236 1219 1158 1058 964 891 820 750
679 618 568 528 490 453 419 385 353 323
294 264 232 200 167 139 118 98 74 48
28 19 13 7 3 1 0
1217 1224 1239 1220 1165 1070 982 911 841 769
698 639 588 547 506 467 431 395 362 330
298 267 234 200 166 137 116 96 73 47
27 18 12 6 3 1 0
1217 1228 1242 1223 1173 1084 1003 935 866 795
726 666 613 567 523 482 444 407 373 340
307 273 235 198 164 134 113 93 70 46
26 17 11 6 2 1 0
1217 1225 1239 1222 1174 1093 1017 953 887 818
751 691 637 590 545 503 461 421 384 349
314 277 229 185 150 121 99 81 62 40
22 15 9 5 2 1 0
1217 1227 1240 1224 1179 1104 1031 970 906 842
777 718 665 618 574 530 487 445 405 367
328 287 223 167 133 104 80 63 47 31
17 11 7 3 1 0 0
1217 1230 1241 1224 1184 1115 1047 986 923 861
797 742 692 645 599 553 507 462 418 376
328 286 209 141 105 78 55 41 31 20
11 7 5 2 1 0 0
1217 1231 1241 1223 1186 1124 1053 985 919 854
791 737 691 646 600 553 506 460 416 373
325 279 188 111 78 53 30 19 14 9
6 4 3 1 1 0 0
1217 1233 1245 1232 1202 1142 1060 985 918 855
795 744 700 658 616 570 523 477 429 385
334 282 183 101 67 41 18 8 7 5
4 3 2 1 1 0 0
1217 1233 1247 1239 1213 1152 1060 980 913 852
796 750 707 670 627 586 541 495 449 400
347 291 186 104 69 41 16 7 5 4
3 2 2 1 0 0 0
1217 1232 1251 1249 1219 1152 1056 974 903 842
789 744 707 673 633 591 548 503 457 408
354 295 187 106 70 41 15 6 5 3
3 2 1 1 0 0 0
1217 1235 1257 1261 1226 1150 1054 964 894 831
780 741 707 674 636 594 552 508 462 412
357 294 184 105 69 40 14 6 4 3
2 2 1 1 0 0 0
1217 1244 1269 1276 1239 1157 1059 969 891 831
784 744 711 680 646 605 561 514 466 414
359 292 182 105 69 39 14 6 4 3
2 2 1 0 0 0 0
1217 1249 1277 1283 1250 1169 1072 976 896 840
792 753 722 692 654 612 566 518 467 413
357 285 175 104 67 39 13 5 4 3
2 2 1 0 0 0 0
1217 1253 1279 1285 1253 1177 1084 987 908 853
805 766 732 697 657 614 567 517 465 410
354 281 171 100 66 37 12 5 4 3
2 2 1 0 0 0 0
1217 1253 1280 1282 1248 1177 1087 988 909 851
801 760 723 687 646 602 556 506 452 399
345 275 166 97 64 35 12 5 4 3
2 2 1 0 0 0 0
1217 1249 1277 1276 1241 1171 1085 987 907 852
805 765 729 692 650 604 557 505 451 398
343 272 162 96 63 34 12 5 4 3
2 2 1 0 0 0 0
1217 1246 1275 1276 1237 1165 1078 980 900 847
805 769 736 700 658 612 563 512 457 403
347 272 162 96 62 34 11 5 4 3
2 2 1 0 0 0 0
1217 1244 1273 1275 1239 1166 1074 976 894 841
796 759 726 691 651 605 557 506 453 400
345 271 160 96 62 34 11 5 4 3
2 2 1 0 0 0 0
1217 1246 1275 1277 1246 1176 1082 983 898 841
791 749 713 676 637 594 546 495 442 391
339 268 158 95 62 34 11 5 4 3
2 2 1 0 0 0 0
1217 1244 1271 1271 1244 1179 1085 984 897 838
785 743 706 670 631 589 544 496 445 393
341 269 157 96 63 34 11 6 4 3
3 2 1 0 0 0 0
1217 1243 1268 1268 1242 1180 1090 993 905 846
796 755 717 681 640 598 553 505 455 403
348 272 158 97 63 35 11 6 4 3
3 2 1 0 0 0 0
1217 1240 1265 1267 1238 1173 1083 988 900 840
792 753 717 682 643 600 554 506 456 404
350 273 159 97 64 35 11 6 4 3
3 3 2 1 0 0 0
1217 1243 1268 1274 1242 1169 1080 984 895 835
788 752 720 687 648 604 556 507 456 405
351 275 159 98 65 36 12 6 4 3
3 2 1 1 0 0 0
1217 1247 1273 1282 1252 1177 1090 996 907 845
797 760 727 693 653 610 561 511 460 407
353 276 160 99 65 37 12 6 5 4
3 3 1 0 0 0 0
1217 1252 1281 1291 1264 1195 1109 1016 929 867
817 776 737 699 658 614 566 516 464 410
355 278 160 98 65 38 13 6 5 4
3 3 2 1 0 0 0
1217 1258 1290 1301 1271 1206 1112 1024 936 870
817 773 733 693 651 610 563 514 461 411
357 282 164 99 66 38 13 7 5 4
3 3 2 1 1 0 0
1217 1264 1300 1314 1282 1213 1125 1033 945 878
824 779 737 697 653 609 561 510 460 408
355 281 163 98 65 38 14 7 5 4
3 3 2 1 1 0 0
1217 1263 1303 1319 1281 1205 1114 1029 943 879
828 787 750 711 669 624 570 520 466 412
357 284 165 99 66 38 14 7 5 4
3 3 2 1 1 0 0
1217 1262 1303 1320 1278 1194 1108 1017 933 870
820 785 751 715 674 627 576 522 468 412
358 284 165 99 66 38 13 6 5 4
3 3 1 0 0 0 0
