IESNA:LM-63-1995
[TEST]     20439
[MANUFAC]COOPER LIGHTING - SHAPER                                
[LUMCAT]674-31-T5/2/14                                                                  
[LUMINAIRE]INTERIOR WALL MOUNT LUMINAIRE WITH WHITE INTERIOR AND WHITE PLASTIC LENS                                      
[LAMP]TWO SYLVANIA 14 WATT T5 LAMPS                                                   
[LAMPCAT]FP14/835. LUMEN RATING = 1220 LMS.                                              
[OTHER]ONE UNIVERSAL B228PUNV-C BALLAST OPERATING AT 120 VAC AND 34 WATTS              
TILT=NONE
2
      1220
1
73
17
1
1
  0.17
  0.54
  2.00
1
1
   34.0000
0 2.5 5 7.5 10 12.5 15 17.5 20 22.5 25 27.5 30 32.5 35 37.5
40 42.5 45 47.5 50 52.5 55 57.5 60 62.5 65 67.5 70 72.5 75
77.5 80 82.5 85 87.5 90 92.5 95 97.5 100 102.5 105 107.5 110
112.5 115 117.5 120 122.5 125 127.5 130 132.5 135 137.5 140
142.5 145 147.5 150 152.5 155 157.5 160 162.5 165 167.5 170
172.5 175 177.5 180
0 22.5 45 67.5 90 112.5 135 157.5 180 202.5 225 247.5
270 292.5 315 337.5 360
       4.9        6.2       15.4       27.7       39.1       50.7       62.8       74.0       86.6       98.7
     110.6      124.0      136.7      149.2      161.8      175.6      187.9      201.6      213.6      225.2
     238.0      249.1      260.3      270.9      280.3      289.6      299.0      306.8      313.9      319.8
     326.6      331.6      335.6      339.5      341.6      342.4      343.7      342.2      341.4      338.9
     334.7      330.5      325.7      319.6      312.9      305.0      297.8      288.1      278.9      269.7
     259.3      248.6      237.6      225.7      214.0      201.9      188.4      176.3      163.3      151.0
     138.0      125.9      112.7      100.7       89.4       76.9       65.3       53.6       42.2       30.8
      19.5        7.9        6.2
       4.9        6.2       17.1       28.3       38.2       48.8       59.8       70.5       80.9       93.0
     103.5      116.3      128.3      139.8      151.7      164.7      176.3      188.8      200.0      211.0
     221.9      233.1      242.6      252.1      262.2      270.6      277.8      285.1      291.5      298.7
     304.0      308.1      311.9      315.4      317.4      318.4      318.7      321.7      320.0      317.6
     313.5      309.7      305.7      300.2      293.2      286.3      279.3      270.1      261.6      252.8
     243.1      233.2      222.8      211.0      200.2      189.0      177.6      165.7      154.3      142.2
     130.2      119.0      106.9       96.1       85.5       74.3       63.3       52.5       42.5       31.3
      20.5        9.4        6.2
       4.9        7.7       16.2       25.0       34.1       42.2       49.8       58.3       68.6       78.0
      87.3       96.7      106.3      116.9      126.3      134.8      144.6      154.7      163.5      172.1
     181.8      190.1      197.6      205.3      214.0      220.9      227.0      232.8      238.5      242.6
     246.6      251.4      254.3      255.6      257.3      259.1      259.1      262.2      261.6      259.7
     256.1      253.0      249.5      244.8      239.3      233.6      227.3      221.3      214.1      206.6
     198.9      190.3      182.2      172.9      164.2      155.2      145.6      136.2      126.9      117.2
     107.5       98.0       88.5       79.1       70.5       60.9       52.8       44.4       35.8       27.9
      18.3       10.1        6.2
       4.9        8.0       15.3       22.4       29.8       36.3       42.8       49.4       55.8       63.7
      70.5       77.8       84.8       92.1       99.1      106.0      112.8      119.3      126.8      133.2
     140.0      146.2      152.1      157.8      163.8      169.0      173.8      178.2      182.4      185.5
     188.4      191.9      194.1      195.2      196.2      197.3      197.1      200.4      200.2      198.6
     196.7      194.3      190.3      187.0      183.5      179.2      173.9      169.7      164.2      158.0
     152.6      145.5      139.4      132.9      126.3      119.6      113.8      106.8      100.2       92.4
      85.3       78.5       71.0       64.8       57.6       50.7       44.4       37.8       31.0       23.7
      17.1        9.9        6.2
       4.9        5.2        9.8       13.9       18.2       22.0       26.0       29.8       34.1       38.4
      42.2       45.8       50.0       54.4       58.6       62.8       66.8       71.5       75.1       78.5
      82.7       86.2       89.5       92.5       96.7       99.4      102.2      104.2      106.6      108.5
     110.1      112.3      113.0      113.8      114.0      114.8      114.8      124.8      123.7      122.7
     121.7      120.0      118.0      115.6      112.8      109.8      107.1      104.0      100.9       97.9
      93.9       90.4       86.6       82.6       78.4       74.4       69.7       65.5       61.0       56.7
      52.8       48.6       44.5       40.4       36.0       32.5       28.7       24.8       20.9       16.0
      12.3        8.1        6.2
       4.9        5.3        5.7        8.0        9.4       10.1       11.6       12.5       12.9       13.8
      14.7       15.3       16.2       17.6       18.6       19.8       20.9       21.6       22.8       23.7
      24.4       25.3       27.0       27.4       29.0       29.2       30.8       30.7       31.3       32.3
      32.5       33.6       33.4       34.5       34.5       34.9       34.5       42.8       42.2       42.0
      41.3       40.9       39.8       39.5       38.3       37.7       36.7       35.6       34.0       33.4
      31.9       31.2       29.9       28.8       27.4       26.1       25.0       23.5       22.5       21.1
      20.2       19.1       18.2       16.7       16.7       16.2       14.5       14.0       12.3       10.4
       9.5        8.3        6.2
       4.9        6.1        6.8        7.0        5.7        6.1        4.6        4.6        3.8        3.5
       2.4        1.8        1.3        1.7        1.3        0.2        0.0        0.4        0.2        0.0
       0.0        0.0        0.0        0.0        0.0        0.0        0.0        0.0        0.0        0.0
       0.0        0.0        0.0        0.0        0.0        0.0        0.0        3.2        3.3        3.2
       3.3        2.9        3.3        3.2        3.3        2.6        3.2        2.9        3.5        3.3
       3.3        3.5        3.3        3.7        3.7        3.8        4.1        4.1        4.6        4.6
       5.1        5.1        5.9        6.4        6.8        7.4        8.0        8.8        9.0        9.4
       8.3        7.5        6.2
       4.9        7.0        6.8        7.0        6.1        5.0        4.7        3.8        3.3        2.9
       1.8        1.8        1.5        0.5        0.5        0.2        0.0        0.0        0.0        0.0
       0.0        0.0        0.0        0.0        0.0        0.0        0.0        0.0        0.0        0.0
       0.0        0.0        0.0        0.0        0.0        0.0        0.0        0.0        0.0        0.0
       0.0        0.2        0.0        0.0        0.4        0.0        0.5        0.5        0.9        0.9
       0.9        0.9        1.1        1.1        1.5        1.7        1.8        1.5        2.6        2.6
       3.2        3.2        3.5        4.6        5.1        5.3        6.6        7.4        8.3        8.6
       9.0        7.0        6.2
       4.9        7.7        7.4        7.0        7.0        6.1        5.0        4.2        4.1        2.8
       2.9        2.0        2.0        2.0        1.7        0.4        0.4        0.5        0.5        0.2
       0.0        0.0        0.0        0.0        0.0        0.0        0.0        0.0        0.0        0.0
       0.0        0.0        0.0        0.0        0.0        0.0        0.0        0.0        0.0        0.0
       0.0        0.0        0.0        0.0        0.0        0.0        0.0        0.0        0.0        0.0
       0.0        0.0        0.0        0.0        0.4        0.5        0.0        0.4        1.3        1.5
       2.0        2.0        2.9        3.7        3.7        4.2        5.0        5.5        6.6        7.5
       7.4        6.6        6.2
       4.9        7.0        6.8        7.0        6.1        5.0        4.7        3.8        3.3        2.9
       1.8        1.8        1.5        0.5        0.5        0.2        0.0        0.0        0.0        0.0
       0.0        0.0        0.0        0.0        0.0        0.0        0.0        0.0        0.0        0.0
       0.0        0.0        0.0        0.0        0.0        0.0        0.0        0.0        0.0        0.0
       0.0        0.2        0.0        0.0        0.4        0.0        0.5        0.5        0.9        0.9
       0.9        0.9        1.1        1.1        1.5        1.7        1.8        1.5        2.6        2.6
       3.2        3.2        3.5        4.6        5.1        5.3        6.6        7.4        8.3        8.6
       9.0        7.0        6.2
       4.9        6.1        6.8        7.0        5.7        6.1        4.6        4.6        3.8        3.5
       2.4        1.8        1.3        1.7        1.3        0.2        0.0        0.4        0.2        0.0
       0.0        0.0        0.0        0.0        0.0        0.0        0.0        0.0        0.0        0.0
       0.0        0.0        0.0        0.0        0.0        0.0        0.0        3.2        3.3        3.2
       3.3        2.9        3.3        3.2        3.3        2.6        3.2        2.9        3.5        3.3
       3.3        3.5        3.3        3.7        3.7        3.8        4.1        4.1        4.6        4.6
       5.1        5.1        5.9        6.4        6.8        7.4        8.0        8.8        9.0        9.4
       8.3        7.5        6.2
       4.9        5.3        5.7        8.0        9.4       10.1       11.6       12.5       12.9       13.8
      14.7       15.3       16.2       17.6       18.6       19.8       20.9       21.6       22.8       23.7
      24.4       25.3       27.0       27.4       29.0       29.2       30.8       30.7       31.3       32.3
      32.5       33.6       33.4       34.5       34.5       34.9       34.5       42.8       42.2       42.0
      41.3       40.9       39.8       39.5       38.3       37.7       36.7       35.6       34.0       33.4
      31.9       31.2       29.9       28.8       27.4       26.1       25.0       23.5       22.5       21.1
      20.2       19.1       18.2       16.7       16.7       16.2       14.5       14.0       12.3       10.4
       9.5        8.3        6.2
       4.9        5.2        9.8       13.9       18.2       22.0       26.0       29.8       34.1       38.4
      42.2       45.8       50.0       54.4       58.6       62.8       66.8       71.5       75.1       78.5
      82.7       86.2       89.5       92.5       96.7       99.4      102.2      104.2      106.6      108.5
     110.1      112.3      113.0      113.8      114.0      114.8      114.8      124.8      123.7      122.7
     121.7      120.0      118.0      115.6      112.8      109.8      107.1      104.0      100.9       97.9
      93.9       90.4       86.6       82.6       78.4       74.4       69.7       65.5       61.0       56.7
      52.8       48.6       44.5       40.4       36.0       32.5       28.7       24.8       20.9       16.0
      12.3        8.1        6.2
       4.9        8.0       15.3       22.4       29.8       36.3       42.8       49.4       55.8       63.7
      70.5       77.8       84.8       92.1       99.1      106.0      112.8      119.3      126.8      133.2
     140.0      146.2      152.1      157.8      163.8      169.0      173.8      178.2      182.4      185.5
     188.4      191.9      194.1      195.2      196.2      197.3      197.1      200.4      200.2      198.6
     196.7      194.3      190.3      187.0      183.5      179.2      173.9      169.7      164.2      158.0
     152.6      145.5      139.4      132.9      126.3      119.6      113.8      106.8      100.2       92.4
      85.3       78.5       71.0       64.8       57.6       50.7       44.4       37.8       31.0       23.7
      17.1        9.9        6.2
       4.9        7.7       16.2       25.0       34.1       42.2       49.8       58.3       68.6       78.0
      87.3       96.7      106.3      116.9      126.3      134.8      144.6      154.7      163.5      172.1
     181.8      190.1      197.6      205.3      214.0      220.9      227.0      232.8      238.5      242.6
     246.6      251.4      254.3      255.6      257.3      259.1      259.1      262.2      261.6      259.7
     256.1      253.0      249.5      244.8      239.3      233.6      227.3      221.3      214.1      206.6
     198.9      190.3      182.2      172.9      164.2      155.2      145.6      136.2      126.9      117.2
     107.5       98.0       88.5       79.1       70.5       60.9       52.8       44.4       35.8       27.9
      18.3       10.1        6.2
       4.9        6.2       17.1       28.3       38.2       48.8       59.8       70.5       80.9       93.0
     103.5      116.3      128.3      139.8      151.7      164.7      176.3      188.8      200.0      211.0
     221.9      233.1      242.6      252.1      262.2      270.6      277.8      285.1      291.5      298.7
     304.0      308.1      311.9      315.4      317.4      318.4      318.7      321.7      320.0      317.6
     313.5      309.7      305.7      300.2      293.2      286.3      279.3      270.1      261.6      252.8
     243.1      233.2      222.8      211.0      200.2      189.0      177.6      165.7      154.3      142.2
     130.2      119.0      106.9       96.1       85.5       74.3       63.3       52.5       42.5       31.3
      20.5        9.4        6.2
       4.9        6.2       15.4       27.7       39.1       50.7       62.8       74.0       86.6       98.7
     110.6      124.0      136.7      149.2      161.8      175.6      187.9      201.6      213.6      225.2
     238.0      249.1      260.3      270.9      280.3      289.6      299.0      306.8      313.9      319.8
     326.6      331.6      335.6      339.5      341.6      342.4      343.7      342.2      341.4      338.9
     334.7      330.5      325.7      319.6      312.9      305.0      297.8      288.1      278.9      269.7
     259.3      248.6      237.6      225.7      214.0      201.9      188.4      176.3      163.3      151.0
     138.0      125.9      112.7      100.7       89.4       76.9       65.3       53.6       42.2       30.8
      19.5        7.9        6.2
