IESNA:LM-63-2002
[TEST]253P154
[TESTLAB]METALUX LABORITORIES
[ISSUEDATE]05/14/08
[MANUFAC]COOPER LIGHTING - SHAPER
[LUMCAT]1270-44-CFL/8/39 
[LUMINAIRE]SHAPER 44 INCH 1270 SERIES SOLID INDIRECT INTERIOR PENDANT FIXTURE
[LAMP]EIGHT 39 WATT GX24 T4 COMPACT FLUORESCENT LAMPS 
[MORE](8)F39BX - 2850 LUMENS - 39 WATTS
[MORE]THIS FILE WAS PRORATED FROM TEST NO: 253P154
TILT=NONE
8 2850 1 73 17 1 1 -3.666667 -3.666667 0.1
1 1 320
0 2.5 5 7.5 10 12.5 15 17.5 20 22.5
25 27.5 30 32.5 35 37.5 40 42.5 45 47.5
50 52.5 55 57.5 60 62.5 65 67.5 70 72.5
75 77.5 80 82.5 85 87.5 90 92.5 95 97.5
100 102.5 105 107.5 110 112.5 115 117.5 120 122.5
125 127.5 130 132.5 135 137.5 140 142.5 145 147.5
150 152.5 155 157.5 160 162.5 165 167.5 170 172.5
175 177.5 180
0 22.5 45 67.5 90 112.5 135 157.5 180 202.5
225 247.5 270 292.5 315 337.5 360
0 0 0 0 0 0 0 0 0 0
0 0 0 0 0 0 0 0 0 0
0 0 0 0 0 0 0 0 0 0
0 0 0 0 0 0 18 213.5 550.1 841.4
1076.7 1308.3 1538.1 1763.4 1977.8 2171.4 2469.1 2819.2 3081.6 3346.7
3557.5 3738.5 3813.6 3844.3 3962.9 4099.5 4244.2 4371.8 4446 4475.9
4494.9 4457.8 4343.8 4138.4 3915.8 3677 3440.8 3229.1 3047.2 2888.9
2779.4 2726 2699.8
0 0 0 0 0 0 0 0 0 0
0 0 0 0 0 0 0 0 0 0
0 0 0 0 0 0 0 0 0 0
0 0 0 0 0 0 17 193.6 589 999.8
1454 1924.4 2275.5 2574 2835.5 3107 3471.6 3838.9 4187.2 4482.2
4698.4 4796.1 4762.7 4791.6 4860.4 4926.4 4979.8 4985.2 4951.8 4913.8
4854 4713.8 4485.8 4221.6 3949.3 3682.4 3436.3 3220 3033.7 2881.7
2772.2 2720.6 2699.8
0 0 0 0 0 0 0 0 0 0
0 0 0 0 0 0 0 0 0 0
0 0 0 0 0 0 0 0 0 0
0 0 0 0 0 0 17 207.2 620.7 1043.2
1487.4 1874.7 2204.9 2609.3 3160.3 3650.7 4078.7 4425.2 4604.3 4659.5
4788.9 4995.2 5251.2 5479.2 5632.1 5739.8 5810.4 5846.6 5777.8 5587.8
5311.9 4999.7 4677.6 4343.8 4030.7 3740.3 3479.7 3229.1 3021 2868.1
2769.5 2716.1 2699.8
0 0 0 0 0 0 0 0 0 0
0 0 0 0 0 0 0 0 0 0
0 0 0 0 0 0 0 0 0 0
0 0 0 0 0 0 24 244.3 657.8 1086.6
1478.4 1881.9 2252.9 2572.2 2811.1 3105.1 3542.1 3962 4284 4587.1
4799.8 4887.5 4914.7 4986.1 5029.6 5092 5133.6 5122.8 5078.4 5020.5
4925.5 4764.5 4520.2 4249.7 3979.1 3696.9 3447.1 3228.2 3035.5 2886.2
2790.3 2735.1 2699.8
0 0 0 0 0 0 0 0 0 0
0 0 0 0 0 0 0 0 0 0
0 0 0 0 0 0 0 0 0 0
0 0 0 0 0 0 18 213.5 550.1 841.4
1076.7 1308.3 1538.1 1763.4 1977.8 2171.4 2469.1 2819.2 3081.6 3346.7
3557.5 3738.5 3813.6 3844.3 3962.9 4099.5 4244.2 4371.8 4446 4475.9
4494.9 4457.8 4343.8 4138.4 3915.8 3677 3440.8 3229.1 3047.2 2888.9
2779.4 2726 2699.8
0 0 0 0 0 0 0 0 0 0
0 0 0 0 0 0 0 0 0 0
0 0 0 0 0 0 0 0 0 0
0 0 0 0 0 0 17 193.6 589 999.8
1454 1924.4 2275.5 2574 2835.5 3107 3471.6 3838.9 4187.2 4482.2
4698.4 4796.1 4762.7 4791.6 4860.4 4926.4 4979.8 4985.2 4951.8 4913.8
4854 4713.8 4485.8 4221.6 3949.3 3682.4 3436.3 3220 3033.7 2881.7
2772.2 2720.6 2699.8
0 0 0 0 0 0 0 0 0 0
0 0 0 0 0 0 0 0 0 0
0 0 0 0 0 0 0 0 0 0
0 0 0 0 0 0 17 207.2 620.7 1043.2
1487.4 1874.7 2204.9 2609.3 3160.3 3650.7 4078.7 4425.2 4604.3 4659.5
4788.9 4995.2 5251.2 5479.2 5632.1 5739.8 5810.4 5846.6 5777.8 5587.8
5311.9 4999.7 4677.6 4343.8 4030.7 3740.3 3479.7 3229.1 3021 2868.1
2769.5 2716.1 2699.8
0 0 0 0 0 0 0 0 0 0
0 0 0 0 0 0 0 0 0 0
0 0 0 0 0 0 0 0 0 0
0 0 0 0 0 0 24 244.3 657.8 1086.6
1478.4 1881.9 2252.9 2572.2 2811.1 3105.1 3542.1 3962 4284 4587.1
4799.8 4887.5 4914.7 4986.1 5029.6 5092 5133.6 5122.8 5078.4 5020.5
4925.5 4764.5 4520.2 4249.7 3979.1 3696.9 3447.1 3228.2 3035.5 2886.2
2790.3 2735.1 2699.8
0 0 0 0 0 0 0 0 0 0
0 0 0 0 0 0 0 0 0 0
0 0 0 0 0 0 0 0 0 0
0 0 0 0 0 0 18 213.5 550.1 841.4
1076.7 1308.3 1538.1 1763.4 1977.8 2171.4 2469.1 2819.2 3081.6 3346.7
3557.5 3738.5 3813.6 3844.3 3962.9 4099.5 4244.2 4371.8 4446 4475.9
4494.9 4457.8 4343.8 4138.4 3915.8 3677 3440.8 3229.1 3047.2 2888.9
2779.4 2726 2699.8
0 0 0 0 0 0 0 0 0 0
0 0 0 0 0 0 0 0 0 0
0 0 0 0 0 0 0 0 0 0
0 0 0 0 0 0 17 193.6 589 999.8
1454 1924.4 2275.5 2574 2835.5 3107 3471.6 3838.9 4187.2 4482.2
4698.4 4796.1 4762.7 4791.6 4860.4 4926.4 4979.8 4985.2 4951.8 4913.8
4854 4713.8 4485.8 4221.6 3949.3 3682.4 3436.3 3220 3033.7 2881.7
2772.2 2720.6 2699.8
0 0 0 0 0 0 0 0 0 0
0 0 0 0 0 0 0 0 0 0
0 0 0 0 0 0 0 0 0 0
0 0 0 0 0 0 17 207.2 620.7 1043.2
1487.4 1874.7 2204.9 2609.3 3160.3 3650.7 4078.7 4425.2 4604.3 4659.5
4788.9 4995.2 5251.2 5479.2 5632.1 5739.8 5810.4 5846.6 5777.8 5587.8
5311.9 4999.7 4677.6 4343.8 4030.7 3740.3 3479.7 3229.1 3021 2868.1
2769.5 2716.1 2699.8
0 0 0 0 0 0 0 0 0 0
0 0 0 0 0 0 0 0 0 0
0 0 0 0 0 0 0 0 0 0
0 0 0 0 0 0 24 244.3 657.8 1086.6
1478.4 1881.9 2252.9 2572.2 2811.1 3105.1 3542.1 3962 4284 4587.1
4799.8 4887.5 4914.7 4986.1 5029.6 5092 5133.6 5122.8 5078.4 5020.5
4925.5 4764.5 4520.2 4249.7 3979.1 3696.9 3447.1 3228.2 3035.5 2886.2
2790.3 2735.1 2699.8
0 0 0 0 0 0 0 0 0 0
0 0 0 0 0 0 0 0 0 0
0 0 0 0 0 0 0 0 0 0
0 0 0 0 0 0 18 213.5 550.1 841.4
1076.7 1308.3 1538.1 1763.4 1977.8 2171.4 2469.1 2819.2 3081.6 3346.7
3557.5 3738.5 3813.6 3844.3 3962.9 4099.5 4244.2 4371.8 4446 4475.9
4494.9 4457.8 4343.8 4138.4 3915.8 3677 3440.8 3229.1 3047.2 2888.9
2779.4 2726 2699.8
0 0 0 0 0 0 0 0 0 0
0 0 0 0 0 0 0 0 0 0
0 0 0 0 0 0 0 0 0 0
0 0 0 0 0 0 17 193.6 589 999.8
1454 1924.4 2275.5 2574 2835.5 3107 3471.6 3838.9 4187.2 4482.2
4698.4 4796.1 4762.7 4791.6 4860.4 4926.4 4979.8 4985.2 4951.8 4913.8
4854 4713.8 4485.8 4221.6 3949.3 3682.4 3436.3 3220 3033.7 2881.7
2772.2 2720.6 2699.8
0 0 0 0 0 0 0 0 0 0
0 0 0 0 0 0 0 0 0 0
0 0 0 0 0 0 0 0 0 0
0 0 0 0 0 0 17 207.2 620.7 1043.2
1487.4 1874.7 2204.9 2609.3 3160.3 3650.7 4078.7 4425.2 4604.3 4659.5
4788.9 4995.2 5251.2 5479.2 5632.1 5739.8 5810.4 5846.6 5777.8 5587.8
5311.9 4999.7 4677.6 4343.8 4030.7 3740.3 3479.7 3229.1 3021 2868.1
2769.5 2716.1 2699.8
0 0 0 0 0 0 0 0 0 0
0 0 0 0 0 0 0 0 0 0
0 0 0 0 0 0 0 0 0 0
0 0 0 0 0 0 24 244.3 657.8 1086.6
1478.4 1881.9 2252.9 2572.2 2811.1 3105.1 3542.1 3962 4284 4587.1
4799.8 4887.5 4914.7 4986.1 5029.6 5092 5133.6 5122.8 5078.4 5020.5
4925.5 4764.5 4520.2 4249.7 3979.1 3696.9 3447.1 3228.2 3035.5 2886.2
2790.3 2735.1 2699.8
0 0 0 0 0 0 0 0 0 0
0 0 0 0 0 0 0 0 0 0
0 0 0 0 0 0 0 0 0 0
0 0 0 0 0 0 18 213.5 550.1 841.4
1076.7 1308.3 1538.1 1763.4 1977.8 2171.4 2469.1 2819.2 3081.6 3346.7
3557.5 3738.5 3813.6 3844.3 3962.9 4099.5 4244.2 4371.8 4446 4475.9
4494.9 4457.8 4343.8 4138.4 3915.8 3677 3440.8 3229.1 3047.2 2888.9
2779.4 2726 2699.8
