IESNA:LM-63-2002
[TEST]253P153
[TESTLAB]METALUX LABORITORIES
[ISSUEDATE]05/14/08
[MANUFAC]COOPER LIGHTING - SHAPER
[LUMCAT]1270-44-CFL/4/27
[LUMINAIRE]SHAPER 44 INCH 1270 SERIES SOLID INDIRECT INTERIOR PENDANT FIXTURE
[LAMP]FOUR 24 WATT GX24 T4 COMPACT FLUORESCENT LAMPS 
[MORE](4)F24BX - 1800 LUMENS - 24 WATTS
[MORE]THIS FILE WAS PRORATED FROM TEST NO: 253P153
TILT=NONE
4 1800 1 73 17 1 1 -3.666667 -3.666667 0.1
1 1 96
0 2.5 5 7.5 10 12.5 15 17.5 20 22.5
25 27.5 30 32.5 35 37.5 40 42.5 45 47.5
50 52.5 55 57.5 60 62.5 65 67.5 70 72.5
75 77.5 80 82.5 85 87.5 90 92.5 95 97.5
100 102.5 105 107.5 110 112.5 115 117.5 120 122.5
125 127.5 130 132.5 135 137.5 140 142.5 145 147.5
150 152.5 155 157.5 160 162.5 165 167.5 170 172.5
175 177.5 180
0 22.5 45 67.5 90 112.5 135 157.5 180 202.5
225 247.5 270 292.5 315 337.5 360
0 0 0 0 0 0 0 0 0 0
0 0 0 0 0 0 0 0 0 0
0 0 0 0 0 0 0 0 0 0
0 0 0 0 0 0 2 94.9 237.7 353.1
425.7 464.6 542.9 641.7 742.9 819.4 931.4 1066.9 1149.1 1219.4
1270.3 1328 1367.4 1370.9 1357.1 1326.3 1308 1276.6 1252 1224
1197.1 1167.4 1103.4 1009.7 913.1 821.7 733.7 666.9 621.1 582.3
554.9 548 532.6
0 0 0 0 0 0 0 0 0 0
0 0 0 0 0 0 0 0 0 0
0 0 0 0 0 0 0 0 0 0
0 0 0 0 0 0 6 83.4 253.1 414.3
575.4 721.7 868.6 1013.7 1112 1198.9 1311.4 1412 1486.9 1562.3
1632 1673.1 1661.7 1625.7 1571.4 1525.7 1466.9 1412 1364.6 1314.3
1272.6 1208.6 1110.9 1005.7 906.3 810.3 726.3 665.1 618.9 580
550.9 534.9 532.6
0 0 0 0 0 0 0 0 0 0
0 0 0 0 0 0 0 0 0 0
0 0 0 0 0 0 0 0 0 0
0 0 0 0 0 0 4 93.7 282.9 421.1
568.6 740 918.9 1091.4 1333.7 1493.1 1618.3 1742.3 1811.4 1828.6
1824.6 1795.4 1778.3 1749.7 1721.1 1706.3 1685.7 1666.9 1620 1513.1
1382.3 1250.3 1124.6 998.9 885.1 792 728 672 618.9 577.7
549.1 533.7 532.6
0 0 0 0 0 0 0 0 0 0
0 0 0 0 0 0 0 0 0 0
0 0 0 0 0 0 0 0 0 0
0 0 0 0 0 0 6 102.9 277.1 448
586.9 737.7 870.9 1010.3 1114.3 1209.1 1347.4 1468 1536.6 1619.4
1678.9 1709.1 1695.4 1650.3 1588.6 1538.9 1480 1424 1370.3 1322.9
1279.4 1213.7 1113.7 1010.9 914.9 814.3 726.9 665.7 619.4 580.6
553.1 539.4 532.6
0 0 0 0 0 0 0 0 0 0
0 0 0 0 0 0 0 0 0 0
0 0 0 0 0 0 0 0 0 0
0 0 0 0 0 0 2 94.9 237.7 353.1
425.7 464.6 542.9 641.7 742.9 819.4 931.4 1066.9 1149.1 1219.4
1270.3 1328 1367.4 1370.9 1357.1 1326.3 1308 1276.6 1252 1224
1197.1 1167.4 1103.4 1009.7 913.1 821.7 733.7 666.9 621.1 582.3
554.9 548 532.6
0 0 0 0 0 0 0 0 0 0
0 0 0 0 0 0 0 0 0 0
0 0 0 0 0 0 0 0 0 0
0 0 0 0 0 0 6 83.4 253.1 414.3
575.4 721.7 868.6 1013.7 1112 1198.9 1311.4 1412 1486.9 1562.3
1632 1673.1 1661.7 1625.7 1571.4 1525.7 1466.9 1412 1364.6 1314.3
1272.6 1208.6 1110.9 1005.7 906.3 810.3 726.3 665.1 618.9 580
550.9 534.9 532.6
0 0 0 0 0 0 0 0 0 0
0 0 0 0 0 0 0 0 0 0
0 0 0 0 0 0 0 0 0 0
0 0 0 0 0 0 4 93.7 282.9 421.1
568.6 740 918.9 1091.4 1333.7 1493.1 1618.3 1742.3 1811.4 1828.6
1824.6 1795.4 1778.3 1749.7 1721.1 1706.3 1685.7 1666.9 1620 1513.1
1382.3 1250.3 1124.6 998.9 885.1 792 728 672 618.9 577.7
549.1 533.7 532.6
0 0 0 0 0 0 0 0 0 0
0 0 0 0 0 0 0 0 0 0
0 0 0 0 0 0 0 0 0 0
0 0 0 0 0 0 6 102.9 277.1 448
586.9 737.7 870.9 1010.3 1114.3 1209.1 1347.4 1468 1536.6 1619.4
1678.9 1709.1 1695.4 1650.3 1588.6 1538.9 1480 1424 1370.3 1322.9
1279.4 1213.7 1113.7 1010.9 914.9 814.3 726.9 665.7 619.4 580.6
553.1 539.4 532.6
0 0 0 0 0 0 0 0 0 0
0 0 0 0 0 0 0 0 0 0
0 0 0 0 0 0 0 0 0 0
0 0 0 0 0 0 2 94.9 237.7 353.1
425.7 464.6 542.9 641.7 742.9 819.4 931.4 1066.9 1149.1 1219.4
1270.3 1328 1367.4 1370.9 1357.1 1326.3 1308 1276.6 1252 1224
1197.1 1167.4 1103.4 1009.7 913.1 821.7 733.7 666.9 621.1 582.3
554.9 548 532.6
0 0 0 0 0 0 0 0 0 0
0 0 0 0 0 0 0 0 0 0
0 0 0 0 0 0 0 0 0 0
0 0 0 0 0 0 6 83.4 253.1 414.3
575.4 721.7 868.6 1013.7 1112 1198.9 1311.4 1412 1486.9 1562.3
1632 1673.1 1661.7 1625.7 1571.4 1525.7 1466.9 1412 1364.6 1314.3
1272.6 1208.6 1110.9 1005.7 906.3 810.3 726.3 665.1 618.9 580
550.9 534.9 532.6
0 0 0 0 0 0 0 0 0 0
0 0 0 0 0 0 0 0 0 0
0 0 0 0 0 0 0 0 0 0
0 0 0 0 0 0 4 93.7 282.9 421.1
568.6 740 918.9 1091.4 1333.7 1493.1 1618.3 1742.3 1811.4 1828.6
1824.6 1795.4 1778.3 1749.7 1721.1 1706.3 1685.7 1666.9 1620 1513.1
1382.3 1250.3 1124.6 998.9 885.1 792 728 672 618.9 577.7
549.1 533.7 532.6
0 0 0 0 0 0 0 0 0 0
0 0 0 0 0 0 0 0 0 0
0 0 0 0 0 0 0 0 0 0
0 0 0 0 0 0 6 102.9 277.1 448
586.9 737.7 870.9 1010.3 1114.3 1209.1 1347.4 1468 1536.6 1619.4
1678.9 1709.1 1695.4 1650.3 1588.6 1538.9 1480 1424 1370.3 1322.9
1279.4 1213.7 1113.7 1010.9 914.9 814.3 726.9 665.7 619.4 580.6
553.1 539.4 532.6
0 0 0 0 0 0 0 0 0 0
0 0 0 0 0 0 0 0 0 0
0 0 0 0 0 0 0 0 0 0
0 0 0 0 0 0 2 94.9 237.7 353.1
425.7 464.6 542.9 641.7 742.9 819.4 931.4 1066.9 1149.1 1219.4
1270.3 1328 1367.4 1370.9 1357.1 1326.3 1308 1276.6 1252 1224
1197.1 1167.4 1103.4 1009.7 913.1 821.7 733.7 666.9 621.1 582.3
554.9 548 532.6
0 0 0 0 0 0 0 0 0 0
0 0 0 0 0 0 0 0 0 0
0 0 0 0 0 0 0 0 0 0
0 0 0 0 0 0 6 83.4 253.1 414.3
575.4 721.7 868.6 1013.7 1112 1198.9 1311.4 1412 1486.9 1562.3
1632 1673.1 1661.7 1625.7 1571.4 1525.7 1466.9 1412 1364.6 1314.3
1272.6 1208.6 1110.9 1005.7 906.3 810.3 726.3 665.1 618.9 580
550.9 534.9 532.6
0 0 0 0 0 0 0 0 0 0
0 0 0 0 0 0 0 0 0 0
0 0 0 0 0 0 0 0 0 0
0 0 0 0 0 0 4 93.7 282.9 421.1
568.6 740 918.9 1091.4 1333.7 1493.1 1618.3 1742.3 1811.4 1828.6
1824.6 1795.4 1778.3 1749.7 1721.1 1706.3 1685.7 1666.9 1620 1513.1
1382.3 1250.3 1124.6 998.9 885.1 792 728 672 618.9 577.7
549.1 533.7 532.6
0 0 0 0 0 0 0 0 0 0
0 0 0 0 0 0 0 0 0 0
0 0 0 0 0 0 0 0 0 0
0 0 0 0 0 0 6 102.9 277.1 448
586.9 737.7 870.9 1010.3 1114.3 1209.1 1347.4 1468 1536.6 1619.4
1678.9 1709.1 1695.4 1650.3 1588.6 1538.9 1480 1424 1370.3 1322.9
1279.4 1213.7 1113.7 1010.9 914.9 814.3 726.9 665.7 619.4 580.6
553.1 539.4 532.6
0 0 0 0 0 0 0 0 0 0
0 0 0 0 0 0 0 0 0 0
0 0 0 0 0 0 0 0 0 0
0 0 0 0 0 0 2 94.9 237.7 353.1
425.7 464.6 542.9 641.7 742.9 819.4 931.4 1066.9 1149.1 1219.4
1270.3 1328 1367.4 1370.9 1357.1 1326.3 1308 1276.6 1252 1224
1197.1 1167.4 1103.4 1009.7 913.1 821.7 733.7 666.9 621.1 582.3
554.9 548 532.6
