IESNA:LM-63-2002
[TEST]253P154
[TESTLAB]METALUX LABORITORIES
[ISSUEDATE]05/14/08
[MANUFAC]COOPER LIGHTING - SHAPER
[LUMCAT]1270-44-CFL/8/27
[LUMINAIRE]SHAPER 44 INCH 1270 SERIES SOLID INDIRECT INTERIOR PENDANT FIXTURE
[LAMP]EIGHT 24 WATT GX24 T4 COMPACT FLUORESCENT LAMPS 
[MORE](8)F24BX - 1800 LUMENS - 24 WATTS
[MORE]THIS FILE WAS PRORATED FROM TEST NO: 253P154
TILT=NONE
8 1800 1 73 17 1 1 -3.666667 -3.666667 0.1
1 1 192
0 2.5 5 7.5 10 12.5 15 17.5 20 22.5
25 27.5 30 32.5 35 37.5 40 42.5 45 47.5
50 52.5 55 57.5 60 62.5 65 67.5 70 72.5
75 77.5 80 82.5 85 87.5 90 92.5 95 97.5
100 102.5 105 107.5 110 112.5 115 117.5 120 122.5
125 127.5 130 132.5 135 137.5 140 142.5 145 147.5
150 152.5 155 157.5 160 162.5 165 167.5 170 172.5
175 177.5 180
0 22.5 45 67.5 90 112.5 135 157.5 180 202.5
225 247.5 270 292.5 315 337.5 360
0 0 0 0 0 0 0 0 0 0
0 0 0 0 0 0 0 0 0 0
0 0 0 0 0 0 0 0 0 0
0 0 0 0 0 0 18 134.9 347.4 531.4
680 826.3 971.4 1113.7 1249.1 1371.4 1559.4 1780.6 1946.3 2113.7
2246.9 2361.1 2408.6 2428 2502.9 2589.1 2680.6 2761.1 2808 2826.9
2838.9 2815.4 2743.4 2613.7 2473.1 2322.3 2173.1 2039.4 1924.6 1824.6
1755.4 1721.7 1705.1
0 0 0 0 0 0 0 0 0 0
0 0 0 0 0 0 0 0 0 0
0 0 0 0 0 0 0 0 0 0
0 0 0 0 0 0 17 122.3 372 631.4
918.3 1215.4 1437.1 1625.7 1790.9 1962.3 2192.6 2424.6 2644.6 2830.9
2967.4 3029.1 3008 3026.3 3069.7 3111.4 3145.1 3148.6 3127.4 3103.4
3065.7 2977.1 2833.1 2666.3 2494.3 2325.7 2170.3 2033.7 1916 1820
1750.9 1718.3 1705.1
0 0 0 0 0 0 0 0 0 0
0 0 0 0 0 0 0 0 0 0
0 0 0 0 0 0 0 0 0 0
0 0 0 0 0 0 17 130.9 392 658.9
939.4 1184 1392.6 1648 1996 2305.7 2576 2794.9 2908 2942.9
3024.6 3154.9 3316.6 3460.6 3557.1 3625.1 3669.7 3692.6 3649.1 3529.1
3354.9 3157.7 2954.3 2743.4 2545.7 2362.3 2197.7 2039.4 1908 1811.4
1749.1 1715.4 1705.1
0 0 0 0 0 0 0 0 0 0
0 0 0 0 0 0 0 0 0 0
0 0 0 0 0 0 0 0 0 0
0 0 0 0 0 0 24 154.3 415.4 686.3
933.7 1188.6 1422.9 1624.6 1775.4 1961.1 2237.1 2502.3 2705.7 2897.1
3031.4 3086.9 3104 3149.1 3176.6 3216 3242.3 3235.4 3207.4 3170.9
3110.9 3009.1 2854.9 2684 2513.1 2334.9 2177.1 2038.9 1917.1 1822.9
1762.3 1727.4 1705.1
0 0 0 0 0 0 0 0 0 0
0 0 0 0 0 0 0 0 0 0
0 0 0 0 0 0 0 0 0 0
0 0 0 0 0 0 18 134.9 347.4 531.4
680 826.3 971.4 1113.7 1249.1 1371.4 1559.4 1780.6 1946.3 2113.7
2246.9 2361.1 2408.6 2428 2502.9 2589.1 2680.6 2761.1 2808 2826.9
2838.9 2815.4 2743.4 2613.7 2473.1 2322.3 2173.1 2039.4 1924.6 1824.6
1755.4 1721.7 1705.1
0 0 0 0 0 0 0 0 0 0
0 0 0 0 0 0 0 0 0 0
0 0 0 0 0 0 0 0 0 0
0 0 0 0 0 0 17 122.3 372 631.4
918.3 1215.4 1437.1 1625.7 1790.9 1962.3 2192.6 2424.6 2644.6 2830.9
2967.4 3029.1 3008 3026.3 3069.7 3111.4 3145.1 3148.6 3127.4 3103.4
3065.7 2977.1 2833.1 2666.3 2494.3 2325.7 2170.3 2033.7 1916 1820
1750.9 1718.3 1705.1
0 0 0 0 0 0 0 0 0 0
0 0 0 0 0 0 0 0 0 0
0 0 0 0 0 0 0 0 0 0
0 0 0 0 0 0 17 130.9 392 658.9
939.4 1184 1392.6 1648 1996 2305.7 2576 2794.9 2908 2942.9
3024.6 3154.9 3316.6 3460.6 3557.1 3625.1 3669.7 3692.6 3649.1 3529.1
3354.9 3157.7 2954.3 2743.4 2545.7 2362.3 2197.7 2039.4 1908 1811.4
1749.1 1715.4 1705.1
0 0 0 0 0 0 0 0 0 0
0 0 0 0 0 0 0 0 0 0
0 0 0 0 0 0 0 0 0 0
0 0 0 0 0 0 24 154.3 415.4 686.3
933.7 1188.6 1422.9 1624.6 1775.4 1961.1 2237.1 2502.3 2705.7 2897.1
3031.4 3086.9 3104 3149.1 3176.6 3216 3242.3 3235.4 3207.4 3170.9
3110.9 3009.1 2854.9 2684 2513.1 2334.9 2177.1 2038.9 1917.1 1822.9
1762.3 1727.4 1705.1
0 0 0 0 0 0 0 0 0 0
0 0 0 0 0 0 0 0 0 0
0 0 0 0 0 0 0 0 0 0
0 0 0 0 0 0 18 134.9 347.4 531.4
680 826.3 971.4 1113.7 1249.1 1371.4 1559.4 1780.6 1946.3 2113.7
2246.9 2361.1 2408.6 2428 2502.9 2589.1 2680.6 2761.1 2808 2826.9
2838.9 2815.4 2743.4 2613.7 2473.1 2322.3 2173.1 2039.4 1924.6 1824.6
1755.4 1721.7 1705.1
0 0 0 0 0 0 0 0 0 0
0 0 0 0 0 0 0 0 0 0
0 0 0 0 0 0 0 0 0 0
0 0 0 0 0 0 17 122.3 372 631.4
918.3 1215.4 1437.1 1625.7 1790.9 1962.3 2192.6 2424.6 2644.6 2830.9
2967.4 3029.1 3008 3026.3 3069.7 3111.4 3145.1 3148.6 3127.4 3103.4
3065.7 2977.1 2833.1 2666.3 2494.3 2325.7 2170.3 2033.7 1916 1820
1750.9 1718.3 1705.1
0 0 0 0 0 0 0 0 0 0
0 0 0 0 0 0 0 0 0 0
0 0 0 0 0 0 0 0 0 0
0 0 0 0 0 0 17 130.9 392 658.9
939.4 1184 1392.6 1648 1996 2305.7 2576 2794.9 2908 2942.9
3024.6 3154.9 3316.6 3460.6 3557.1 3625.1 3669.7 3692.6 3649.1 3529.1
3354.9 3157.7 2954.3 2743.4 2545.7 2362.3 2197.7 2039.4 1908 1811.4
1749.1 1715.4 1705.1
0 0 0 0 0 0 0 0 0 0
0 0 0 0 0 0 0 0 0 0
0 0 0 0 0 0 0 0 0 0
0 0 0 0 0 0 24 154.3 415.4 686.3
933.7 1188.6 1422.9 1624.6 1775.4 1961.1 2237.1 2502.3 2705.7 2897.1
3031.4 3086.9 3104 3149.1 3176.6 3216 3242.3 3235.4 3207.4 3170.9
3110.9 3009.1 2854.9 2684 2513.1 2334.9 2177.1 2038.9 1917.1 1822.9
1762.3 1727.4 1705.1
0 0 0 0 0 0 0 0 0 0
0 0 0 0 0 0 0 0 0 0
0 0 0 0 0 0 0 0 0 0
0 0 0 0 0 0 18 134.9 347.4 531.4
680 826.3 971.4 1113.7 1249.1 1371.4 1559.4 1780.6 1946.3 2113.7
2246.9 2361.1 2408.6 2428 2502.9 2589.1 2680.6 2761.1 2808 2826.9
2838.9 2815.4 2743.4 2613.7 2473.1 2322.3 2173.1 2039.4 1924.6 1824.6
1755.4 1721.7 1705.1
0 0 0 0 0 0 0 0 0 0
0 0 0 0 0 0 0 0 0 0
0 0 0 0 0 0 0 0 0 0
0 0 0 0 0 0 17 122.3 372 631.4
918.3 1215.4 1437.1 1625.7 1790.9 1962.3 2192.6 2424.6 2644.6 2830.9
2967.4 3029.1 3008 3026.3 3069.7 3111.4 3145.1 3148.6 3127.4 3103.4
3065.7 2977.1 2833.1 2666.3 2494.3 2325.7 2170.3 2033.7 1916 1820
1750.9 1718.3 1705.1
0 0 0 0 0 0 0 0 0 0
0 0 0 0 0 0 0 0 0 0
0 0 0 0 0 0 0 0 0 0
0 0 0 0 0 0 17 130.9 392 658.9
939.4 1184 1392.6 1648 1996 2305.7 2576 2794.9 2908 2942.9
3024.6 3154.9 3316.6 3460.6 3557.1 3625.1 3669.7 3692.6 3649.1 3529.1
3354.9 3157.7 2954.3 2743.4 2545.7 2362.3 2197.7 2039.4 1908 1811.4
1749.1 1715.4 1705.1
0 0 0 0 0 0 0 0 0 0
0 0 0 0 0 0 0 0 0 0
0 0 0 0 0 0 0 0 0 0
0 0 0 0 0 0 24 154.3 415.4 686.3
933.7 1188.6 1422.9 1624.6 1775.4 1961.1 2237.1 2502.3 2705.7 2897.1
3031.4 3086.9 3104 3149.1 3176.6 3216 3242.3 3235.4 3207.4 3170.9
3110.9 3009.1 2854.9 2684 2513.1 2334.9 2177.1 2038.9 1917.1 1822.9
1762.3 1727.4 1705.1
0 0 0 0 0 0 0 0 0 0
0 0 0 0 0 0 0 0 0 0
0 0 0 0 0 0 0 0 0 0
0 0 0 0 0 0 18 134.9 347.4 531.4
680 826.3 971.4 1113.7 1249.1 1371.4 1559.4 1780.6 1946.3 2113.7
2246.9 2361.1 2408.6 2428 2502.9 2589.1 2680.6 2761.1 2808 2826.9
2838.9 2815.4 2743.4 2613.7 2473.1 2322.3 2173.1 2039.4 1924.6 1824.6
1755.4 1721.7 1705.1
