IESNA:LM-63-2002
[TEST]253p149
[TESTLAB]METALUX LABORITORIES
[ISSUEDATE]04/29/08
[MANUFAC]COOPER LIGHTING - SHAPER
[LUMCAT]1270-36-CFL/6/50 
[LUMINAIRE]SHAPER 36 INCH 1270 SERIES SOLID INDIRECT INTERIOR PENDANT FIXTURE
[LAMP]SIX 50 WATT GX24 T5 COMPACT FLUORESCENT LAMPS 
[MORE](6)F50BX - 4000 LUMENS - 50 WATTS
TILT=NONE
6 4000 1 73 25 1 1 -3.000000 -3.000000 0.000000
1.000 1 375
0 2.5 5 7.5 10 12.5 15 17.5 20 22.5 25 27.5 30 32.5 35 37.5 40 42.5 45 47.5 50 
52.5 55 57.5 60 62.5 65 67.5 70 72.5 75 77.5 80 82.5 85 87.5 90 92.5 95 97.5 100 
102.5 105 107.5 110 112.5 115 117.5 120 122.5 125 127.5 130 132.5 135 137.5 140 
142.5 145 147.5 150 152.5 155 157.5 160 162.5 165 167.5 170 172.5 175 177.5 180 
0 20 30 40 60 80 90 100 120 140 150 160 180 200 210 220 240 260 270 280 300 320 
330 340  360 
0 0 0 0 0 0 0 0 0 0 0 0 0 0 0 0 0 0 0 0 0 0 0 0 0 0 0 0 0 0 0 0 0 0 0 0 19 125 
313 503 711 938 1204 1447 1635 1739 1818 1925 2089 2245 2372 2463 2521 2552 2603 
2646 2660 2659 2652 2609 2563 2511 2422 2292 2144 1990 1831 1676 1545 1433 1370 
1347 1338
0 0 0 0 0 0 0 0 0 0 0 0 0 0 0 0 0 0 0 0 0 0 0 0 0 0 0 0 0 0 0 0 0 0 0 0 16 127 
289 478 667 845 1014 1192 1364 1550 1743 1911 2045 2133 2192 2240 2281 2337 2415 
2467 2503 2540 2561 2574 2558 2487 2374 2222 2071 1932 1795 1661 1541 1440 1377 
1349 1338
0 0 0 0 0 0 0 0 0 0 0 0 0 0 0 0 0 0 0 0 0 0 0 0 0 0 0 0 0 0 0 0 0 0 0 0 13 112 
248 426 600 763 896 1034 1161 1351 1560 1756 1925 2056 2129 2136 2147 2217 2305 
2389 2460 2489 2503 2523 2514 2444 2323 2188 2045 1899 1769 1650 1538 1446 1384 
1353 1338
0 0 0 0 0 0 0 0 0 0 0 0 0 0 0 0 0 0 0 0 0 0 0 0 0 0 0 0 0 0 0 0 0 0 0 0 15 121 
267 475 671 866 1030 1165 1339 1518 1716 1909 2072 2183 2228 2261 2286 2311 2364 
2443 2495 2526 2529 2495 2446 2371 2263 2138 1999 1858 1733 1631 1533 1453 1391 
1356 1338
0 0 0 0 0 0 0 0 0 0 0 0 0 0 0 0 0 0 0 0 0 0 0 0 0 0 0 0 0 0 0 0 0 0 0 0 19 118 
293 493 720 911 1139 1345 1541 1709 1849 2045 2250 2422 2574 2667 2728 2760 2757 
2761 2739 2693 2615 2521 2423 2326 2213 2078 1943 1802 1679 1592 1517 1448 1397 
1357 1338
0 0 0 0 0 0 0 0 0 0 0 0 0 0 0 0 0 0 0 0 0 0 0 0 0 0 0 0 0 0 0 0 0 0 0 0 16 103 
280 472 681 883 1054 1188 1351 1527 1718 1900 2048 2150 2202 2232 2253 2273 2330 
2418 2476 2512 2521 2499 2452 2375 2267 2142 2005 1861 1738 1636 1535 1454 1392 
1356 1338
0 0 0 0 0 0 0 0 0 0 0 0 0 0 0 0 0 0 0 0 0 0 0 0 0 0 0 0 0 0 0 0 0 0 0 0 13 89 
237 412 597 772 925 1075 1205 1389 1586 1764 1908 2033 2112 2128 2133 2205 2292 
2373 2444 2473 2491 2515 2509 2437 2318 2181 2036 1894 1767 1649 1538 1446 1384 
1353 1338
0 0 0 0 0 0 0 0 0 0 0 0 0 0 0 0 0 0 0 0 0 0 0 0 0 0 0 0 0 0 0 0 0 0 0 0 17 103 
271 470 673 865 1047 1226 1402 1575 1751 1904 2031 2122 2182 2229 2278 2335 2417 
2463 2495 2540 2567 2579 2559 2491 2374 2222 2073 1935 1796 1661 1542 1442 1377 
1350 1338
0 0 0 0 0 0 0 0 0 0 0 0 0 0 0 0 0 0 0 0 0 0 0 0 0 0 0 0 0 0 0 0 0 0 0 0 19 125 
313 503 711 938 1204 1447 1635 1739 1818 1925 2089 2245 2372 2463 2521 2552 2603 
2646 2660 2659 2652 2609 2563 2511 2422 2292 2144 1990 1831 1676 1545 1433 1370 
1347 1338
0 0 0 0 0 0 0 0 0 0 0 0 0 0 0 0 0 0 0 0 0 0 0 0 0 0 0 0 0 0 0 0 0 0 0 0 16 127 
289 478 667 845 1014 1192 1364 1550 1743 1911 2045 2133 2192 2240 2281 2337 2415 
2467 2503 2540 2561 2574 2558 2487 2374 2222 2071 1932 1795 1661 1541 1440 1377 
1349 1338
0 0 0 0 0 0 0 0 0 0 0 0 0 0 0 0 0 0 0 0 0 0 0 0 0 0 0 0 0 0 0 0 0 0 0 0 13 112 
248 426 600 763 896 1034 1161 1351 1560 1756 1925 2056 2129 2136 2147 2217 2305 
2389 2460 2489 2503 2523 2514 2444 2323 2188 2045 1899 1769 1650 1538 1446 1384 
1353 1338
0 0 0 0 0 0 0 0 0 0 0 0 0 0 0 0 0 0 0 0 0 0 0 0 0 0 0 0 0 0 0 0 0 0 0 0 15 121 
267 475 671 866 1030 1165 1339 1518 1716 1909 2072 2183 2228 2261 2286 2311 2364 
2443 2495 2526 2529 2495 2446 2371 2263 2138 1999 1858 1733 1631 1533 1453 1391 
1356 1338
0 0 0 0 0 0 0 0 0 0 0 0 0 0 0 0 0 0 0 0 0 0 0 0 0 0 0 0 0 0 0 0 0 0 0 0 19 118 
293 493 720 911 1139 1345 1541 1709 1849 2045 2250 2422 2574 2667 2728 2760 2757 
2761 2739 2693 2615 2521 2423 2326 2213 2078 1943 1802 1679 1592 1517 1448 1397 
1357 1338
0 0 0 0 0 0 0 0 0 0 0 0 0 0 0 0 0 0 0 0 0 0 0 0 0 0 0 0 0 0 0 0 0 0 0 0 16 103 
280 472 681 883 1054 1188 1351 1527 1718 1900 2048 2150 2202 2232 2253 2273 2330 
2418 2476 2512 2521 2499 2452 2375 2267 2142 2005 1861 1738 1636 1535 1454 1392 
1356 1338
0 0 0 0 0 0 0 0 0 0 0 0 0 0 0 0 0 0 0 0 0 0 0 0 0 0 0 0 0 0 0 0 0 0 0 0 13 89 
237 412 597 772 925 1075 1205 1389 1586 1764 1908 2033 2112 2128 2133 2205 2292 
2373 2444 2473 2491 2515 2509 2437 2318 2181 2036 1894 1767 1649 1538 1446 1384 
1353 1338
0 0 0 0 0 0 0 0 0 0 0 0 0 0 0 0 0 0 0 0 0 0 0 0 0 0 0 0 0 0 0 0 0 0 0 0 17 103 
271 470 673 865 1047 1226 1402 1575 1751 1904 2031 2122 2182 2229 2278 2335 2417 
2463 2495 2540 2567 2579 2559 2491 2374 2222 2073 1935 1796 1661 1542 1442 1377 
1350 1338
0 0 0 0 0 0 0 0 0 0 0 0 0 0 0 0 0 0 0 0 0 0 0 0 0 0 0 0 0 0 0 0 0 0 0 0 19 125 
313 503 711 938 1204 1447 1635 1739 1818 1925 2089 2245 2372 2463 2521 2552 2603 
2646 2660 2659 2652 2609 2563 2511 2422 2292 2144 1990 1831 1676 1545 1433 1370 
1347 1338
0 0 0 0 0 0 0 0 0 0 0 0 0 0 0 0 0 0 0 0 0 0 0 0 0 0 0 0 0 0 0 0 0 0 0 0 16 127 
289 478 667 845 1014 1192 1364 1550 1743 1911 2045 2133 2192 2240 2281 2337 2415 
2467 2503 2540 2561 2574 2558 2487 2374 2222 2071 1932 1795 1661 1541 1440 1377 
1349 1338
0 0 0 0 0 0 0 0 0 0 0 0 0 0 0 0 0 0 0 0 0 0 0 0 0 0 0 0 0 0 0 0 0 0 0 0 13 112 
248 426 600 763 896 1034 1161 1351 1560 1756 1925 2056 2129 2136 2147 2217 2305 
2389 2460 2489 2503 2523 2514 2444 2323 2188 2045 1899 1769 1650 1538 1446 1384 
1353 1338
0 0 0 0 0 0 0 0 0 0 0 0 0 0 0 0 0 0 0 0 0 0 0 0 0 0 0 0 0 0 0 0 0 0 0 0 15 121 
267 475 671 866 1030 1165 1339 1518 1716 1909 2072 2183 2228 2261 2286 2311 2364 
2443 2495 2526 2529 2495 2446 2371 2263 2138 1999 1858 1733 1631 1533 1453 1391 
1356 1338
0 0 0 0 0 0 0 0 0 0 0 0 0 0 0 0 0 0 0 0 0 0 0 0 0 0 0 0 0 0 0 0 0 0 0 0 19 118 
293 493 720 911 1139 1345 1541 1709 1849 2045 2250 2422 2574 2667 2728 2760 2757 
2761 2739 2693 2615 2521 2423 2326 2213 2078 1943 1802 1679 1592 1517 1448 1397 
1357 1338
0 0 0 0 0 0 0 0 0 0 0 0 0 0 0 0 0 0 0 0 0 0 0 0 0 0 0 0 0 0 0 0 0 0 0 0 16 103 
280 472 681 883 1054 1188 1351 1527 1718 1900 2048 2150 2202 2232 2253 2273 2330 
2418 2476 2512 2521 2499 2452 2375 2267 2142 2005 1861 1738 1636 1535 1454 1392 
1356 1338
0 0 0 0 0 0 0 0 0 0 0 0 0 0 0 0 0 0 0 0 0 0 0 0 0 0 0 0 0 0 0 0 0 0 0 0 13 89 
237 412 597 772 925 1075 1205 1389 1586 1764 1908 2033 2112 2128 2133 2205 2292 
2373 2444 2473 2491 2515 2509 2437 2318 2181 2036 1894 1767 1649 1538 1446 1384 
1353 1338
0 0 0 0 0 0 0 0 0 0 0 0 0 0 0 0 0 0 0 0 0 0 0 0 0 0 0 0 0 0 0 0 0 0 0 0 17 103 
271 470 673 865 1047 1226 1402 1575 1751 1904 2031 2122 2182 2229 2278 2335 2417 
2463 2495 2540 2567 2579 2559 2491 2374 2222 2073 1935 1796 1661 1542 1442 1377 
1350 1338
0 0 0 0 0 0 0 0 0 0 0 0 0 0 0 0 0 0 0 0 0 0 0 0 0 0 0 0 0 0 0 0 0 0 0 0 19 125 
313 503 711 938 1204 1447 1635 1739 1818 1925 2089 2245 2372 2463 2521 2552 2603 
2646 2660 2659 2652 2609 2563 2511 2422 2292 2144 1990 1831 1676 1545 1433 1370 
1347 1338

