IESNA:LM-63-2002
[TEST]253P153
[TESTLAB]METALUX LABORITORIES
[ISSUEDATE]05/14/08
[MANUFAC]COOPER LIGHTING - SHAPER
[LUMCAT]1270-44-CFL/4/39 
[LUMINAIRE]SHAPER 44 INCH 1270 SERIES SOLID INDIRECT INTERIOR PENDANT FIXTURE
[LAMP]FOUR 39 WATT GX24 T4 COMPACT FLUORESCENT LAMPS 
[MORE](4)F39BX - 2850 LUMENS - 39 WATTS
[MORE]THIS FILE WAS PRORATED FROM TEST NO: 253P153
TILT=NONE
4 2850 1 73 17 1 1 -3.666667 -3.666667 0.1
1 1 156
0 2.5 5 7.5 10 12.5 15 17.5 20 22.5
25 27.5 30 32.5 35 37.5 40 42.5 45 47.5
50 52.5 55 57.5 60 62.5 65 67.5 70 72.5
75 77.5 80 82.5 85 87.5 90 92.5 95 97.5
100 102.5 105 107.5 110 112.5 115 117.5 120 122.5
125 127.5 130 132.5 135 137.5 140 142.5 145 147.5
150 152.5 155 157.5 160 162.5 165 167.5 170 172.5
175 177.5 180
0 22.5 45 67.5 90 112.5 135 157.5 180 202.5
225 247.5 270 292.5 315 337.5 360
0 0 0 0 0 0 0 0 0 0
0 0 0 0 0 0 0 0 0 0
0 0 0 0 0 0 0 0 0 0
0 0 0 0 0 0 2 150.2 376.4 559.1
674 735.6 859.5 1016 1176.2 1297.4 1474.8 1689.2 1819.5 1930.8
2011.3 2102.7 2165.1 2170.5 2148.8 2100 2071 2021.2 1982.3 1938
1895.5 1848.4 1747.1 1598.7 1445.8 1301 1161.7 1055.9 983.5 922
878.5 867.7 843.2
0 0 0 0 0 0 0 0 0 0
0 0 0 0 0 0 0 0 0 0
0 0 0 0 0 0 0 0 0 0
0 0 0 0 0 0 6 132.1 400.8 656
911.1 1142.7 1375.2 1605 1760.7 1898.2 2076.4 2235.7 2354.2 2473.6
2584 2649.1 2631 2574 2488.1 2415.7 2322.5 2235.7 2160.6 2081
2014.9 1913.6 1758.9 1592.4 1435 1283 1150 1053.1 979.9 918.3
872.2 846.9 843.2
0 0 0 0 0 0 0 0 0 0
0 0 0 0 0 0 0 0 0 0
0 0 0 0 0 0 0 0 0 0
0 0 0 0 0 0 4 148.4 447.9 666.8
900.2 1171.7 1454.9 1728.1 2111.7 2364.1 2562.3 2758.6 2868.1 2895.2
2888.9 2842.8 2815.6 2770.4 2725.1 2701.6 2669 2639.2 2565 2395.8
2188.6 1979.6 1780.6 1581.5 1401.5 1254 1152.7 1064 979.9 914.7
869.5 845 843.2
0 0 0 0 0 0 0 0 0 0
0 0 0 0 0 0 0 0 0 0
0 0 0 0 0 0 0 0 0 0
0 0 0 0 0 0 6 162.9 438.8 709.3
929.2 1168 1378.9 1599.6 1764.3 1914.5 2133.4 2324.3 2432.9 2564.1
2658.2 2706.1 2684.4 2613 2515.2 2436.5 2343.3 2254.7 2169.6 2094.5
2025.8 1921.7 1763.4 1600.5 1448.5 1289.3 1150.9 1054 980.8 919.2
875.8 854.1 843.2
0 0 0 0 0 0 0 0 0 0
0 0 0 0 0 0 0 0 0 0
0 0 0 0 0 0 0 0 0 0
0 0 0 0 0 0 2 150.2 376.4 559.1
674 735.6 859.5 1016 1176.2 1297.4 1474.8 1689.2 1819.5 1930.8
2011.3 2102.7 2165.1 2170.5 2148.8 2100 2071 2021.2 1982.3 1938
1895.5 1848.4 1747.1 1598.7 1445.8 1301 1161.7 1055.9 983.5 922
878.5 867.7 843.2
0 0 0 0 0 0 0 0 0 0
0 0 0 0 0 0 0 0 0 0
0 0 0 0 0 0 0 0 0 0
0 0 0 0 0 0 6 132.1 400.8 656
911.1 1142.7 1375.2 1605 1760.7 1898.2 2076.4 2235.7 2354.2 2473.6
2584 2649.1 2631 2574 2488.1 2415.7 2322.5 2235.7 2160.6 2081
2014.9 1913.6 1758.9 1592.4 1435 1283 1150 1053.1 979.9 918.3
872.2 846.9 843.2
0 0 0 0 0 0 0 0 0 0
0 0 0 0 0 0 0 0 0 0
0 0 0 0 0 0 0 0 0 0
0 0 0 0 0 0 4 148.4 447.9 666.8
900.2 1171.7 1454.9 1728.1 2111.7 2364.1 2562.3 2758.6 2868.1 2895.2
2888.9 2842.8 2815.6 2770.4 2725.1 2701.6 2669 2639.2 2565 2395.8
2188.6 1979.6 1780.6 1581.5 1401.5 1254 1152.7 1064 979.9 914.7
869.5 845 843.2
0 0 0 0 0 0 0 0 0 0
0 0 0 0 0 0 0 0 0 0
0 0 0 0 0 0 0 0 0 0
0 0 0 0 0 0 6 162.9 438.8 709.3
929.2 1168 1378.9 1599.6 1764.3 1914.5 2133.4 2324.3 2432.9 2564.1
2658.2 2706.1 2684.4 2613 2515.2 2436.5 2343.3 2254.7 2169.6 2094.5
2025.8 1921.7 1763.4 1600.5 1448.5 1289.3 1150.9 1054 980.8 919.2
875.8 854.1 843.2
0 0 0 0 0 0 0 0 0 0
0 0 0 0 0 0 0 0 0 0
0 0 0 0 0 0 0 0 0 0
0 0 0 0 0 0 2 150.2 376.4 559.1
674 735.6 859.5 1016 1176.2 1297.4 1474.8 1689.2 1819.5 1930.8
2011.3 2102.7 2165.1 2170.5 2148.8 2100 2071 2021.2 1982.3 1938
1895.5 1848.4 1747.1 1598.7 1445.8 1301 1161.7 1055.9 983.5 922
878.5 867.7 843.2
0 0 0 0 0 0 0 0 0 0
0 0 0 0 0 0 0 0 0 0
0 0 0 0 0 0 0 0 0 0
0 0 0 0 0 0 6 132.1 400.8 656
911.1 1142.7 1375.2 1605 1760.7 1898.2 2076.4 2235.7 2354.2 2473.6
2584 2649.1 2631 2574 2488.1 2415.7 2322.5 2235.7 2160.6 2081
2014.9 1913.6 1758.9 1592.4 1435 1283 1150 1053.1 979.9 918.3
872.2 846.9 843.2
0 0 0 0 0 0 0 0 0 0
0 0 0 0 0 0 0 0 0 0
0 0 0 0 0 0 0 0 0 0
0 0 0 0 0 0 4 148.4 447.9 666.8
900.2 1171.7 1454.9 1728.1 2111.7 2364.1 2562.3 2758.6 2868.1 2895.2
2888.9 2842.8 2815.6 2770.4 2725.1 2701.6 2669 2639.2 2565 2395.8
2188.6 1979.6 1780.6 1581.5 1401.5 1254 1152.7 1064 979.9 914.7
869.5 845 843.2
0 0 0 0 0 0 0 0 0 0
0 0 0 0 0 0 0 0 0 0
0 0 0 0 0 0 0 0 0 0
0 0 0 0 0 0 6 162.9 438.8 709.3
929.2 1168 1378.9 1599.6 1764.3 1914.5 2133.4 2324.3 2432.9 2564.1
2658.2 2706.1 2684.4 2613 2515.2 2436.5 2343.3 2254.7 2169.6 2094.5
2025.8 1921.7 1763.4 1600.5 1448.5 1289.3 1150.9 1054 980.8 919.2
875.8 854.1 843.2
0 0 0 0 0 0 0 0 0 0
0 0 0 0 0 0 0 0 0 0
0 0 0 0 0 0 0 0 0 0
0 0 0 0 0 0 2 150.2 376.4 559.1
674 735.6 859.5 1016 1176.2 1297.4 1474.8 1689.2 1819.5 1930.8
2011.3 2102.7 2165.1 2170.5 2148.8 2100 2071 2021.2 1982.3 1938
1895.5 1848.4 1747.1 1598.7 1445.8 1301 1161.7 1055.9 983.5 922
878.5 867.7 843.2
0 0 0 0 0 0 0 0 0 0
0 0 0 0 0 0 0 0 0 0
0 0 0 0 0 0 0 0 0 0
0 0 0 0 0 0 6 132.1 400.8 656
911.1 1142.7 1375.2 1605 1760.7 1898.2 2076.4 2235.7 2354.2 2473.6
2584 2649.1 2631 2574 2488.1 2415.7 2322.5 2235.7 2160.6 2081
2014.9 1913.6 1758.9 1592.4 1435 1283 1150 1053.1 979.9 918.3
872.2 846.9 843.2
0 0 0 0 0 0 0 0 0 0
0 0 0 0 0 0 0 0 0 0
0 0 0 0 0 0 0 0 0 0
0 0 0 0 0 0 4 148.4 447.9 666.8
900.2 1171.7 1454.9 1728.1 2111.7 2364.1 2562.3 2758.6 2868.1 2895.2
2888.9 2842.8 2815.6 2770.4 2725.1 2701.6 2669 2639.2 2565 2395.8
2188.6 1979.6 1780.6 1581.5 1401.5 1254 1152.7 1064 979.9 914.7
869.5 845 843.2
0 0 0 0 0 0 0 0 0 0
0 0 0 0 0 0 0 0 0 0
0 0 0 0 0 0 0 0 0 0
0 0 0 0 0 0 6 162.9 438.8 709.3
929.2 1168 1378.9 1599.6 1764.3 1914.5 2133.4 2324.3 2432.9 2564.1
2658.2 2706.1 2684.4 2613 2515.2 2436.5 2343.3 2254.7 2169.6 2094.5
2025.8 1921.7 1763.4 1600.5 1448.5 1289.3 1150.9 1054 980.8 919.2
875.8 854.1 843.2
0 0 0 0 0 0 0 0 0 0
0 0 0 0 0 0 0 0 0 0
0 0 0 0 0 0 0 0 0 0
0 0 0 0 0 0 2 150.2 376.4 559.1
674 735.6 859.5 1016 1176.2 1297.4 1474.8 1689.2 1819.5 1930.8
2011.3 2102.7 2165.1 2170.5 2148.8 2100 2071 2021.2 1982.3 1938
1895.5 1848.4 1747.1 1598.7 1445.8 1301 1161.7 1055.9 983.5 922
878.5 867.7 843.2
