IESNA:LM-63-2002
[TEST]253p148
[TESTLAB]METALUX LABORITORIES
[ISSUEDATE]04/29/08
[MANUFAC]COOPER LIGHTING - SHAPER
[LUMCAT]1270-36-CFL/6/55
[LUMINAIRE]SHAPER 36 INCH 1270 SERIES SOLID INDIRECT INTERIOR PENDANT FIXTURE
[LAMP]SIX 55 WATT GX24 T4 COMPACT FLUORESCENT LAMPS
[MORE](6)F55BX - 4800 LUMENS - 55 WATTS
[OTHER]INPUT WATTS = 115W
TILT=NONE
6 4800 1 73 25 1 1 -3.000000 -3.000000 0.000000
1.000 1 345
0 2.5 5 7.5 10 12.5 15 17.5 20 22.5 25 27.5 30 32.5 35 37.5 40 42.5 45 47.5 50 
52.5 55 57.5 60 62.5 65 67.5 70 72.5 75 77.5 80 82.5 85 87.5 90 92.5 95 97.5 100 
102.5 105 107.5 110 112.5 115 117.5 120 122.5 125 127.5 130 132.5 135 137.5 140 
142.5 145 147.5 150 152.5 155 157.5 160 162.5 165 167.5 170 172.5 175 177.5 180 
0 20 30 40 60 80 90 100 120 140 150 160 180 200 210 220 240 260 270 280 300 320 
330 340  360 
0 0 0 0 0 0 0 0 0 0 0 0 0 0 0 0 0 0 0 0 0 0 0 0 0 0 0 0 0 0 0 0 0 0 0 0 13 140 
375 627 901 1184 1529 1827 2070 2215 2347 2535 2731 2912 3064 3169 3243 3291 
3380 3412 3420 3412 3378 3328 3282 3213 3098 2937 2753 2560 2362 2169 1995 1853 
1754 1682 1641
0 0 0 0 0 0 0 0 0 0 0 0 0 0 0 0 0 0 0 0 0 0 0 0 0 0 0 0 0 0 0 0 0 0 0 0 16 146 
350 594 831 1060 1283 1491 1721 1962 2196 2419 2596 2706 2798 2896 2957 3045 
3140 3221 3264 3295 3310 3316 3274 3174 3026 2844 2660 2481 2310 2134 1979 1851 
1758 1685 1641
0 0 0 0 0 0 0 0 0 0 0 0 0 0 0 0 0 0 0 0 0 0 0 0 0 0 0 0 0 0 0 0 0 0 0 0 16 130 
297 525 751 950 1127 1298 1469 1724 1991 2229 2445 2610 2701 2723 2790 2896 3009 
3106 3175 3191 3210 3235 3205 3095 2935 2763 2596 2415 2253 2100 1961 1848 1757 
1680 1641
0 0 0 0 0 0 0 0 0 0 0 0 0 0 0 0 0 0 0 0 0 0 0 0 0 0 0 0 0 0 0 0 0 0 0 0 17 148 
325 596 846 1084 1289 1464 1678 1917 2175 2421 2619 2776 2835 2912 2955 3024 
3101 3169 3220 3265 3260 3221 3161 3048 2892 2728 2556 2379 2219 2084 1957 1851 
1757 1678 1641
0 0 0 0 0 0 0 0 0 0 0 0 0 0 0 0 0 0 0 0 0 0 0 0 0 0 0 0 0 0 0 0 0 0 0 0 21 143 
354 618 894 1151 1434 1703 1951 2179 2382 2663 2910 3137 3302 3411 3488 3530 
3558 3553 3515 3445 3359 3234 3119 3001 2837 2656 2484 2323 2173 2066 1964 1859 
1761 1675 1641
0 0 0 0 0 0 0 0 0 0 0 0 0 0 0 0 0 0 0 0 0 0 0 0 0 0 0 0 0 0 0 0 0 0 0 0 13 120 
340 587 849 1091 1300 1487 1699 1942 2191 2422 2603 2732 2804 2873 2905 2968 
3046 3125 3178 3231 3225 3192 3135 3021 2872 2711 2541 2369 2210 2078 1950 1847 
1756 1675 1641
0 0 0 0 0 0 0 0 0 0 0 0 0 0 0 0 0 0 0 0 0 0 0 0 0 0 0 0 0 0 0 0 0 0 0 0 9 102 
271 488 720 939 1138 1318 1501 1756 2012 2224 2412 2564 2658 2681 2743 2852 2957 
3048 3120 3138 3161 3194 3167 3054 2900 2733 2571 2395 2236 2088 1953 1840 1750 
1676 1641
0 0 0 0 0 0 0 0 0 0 0 0 0 0 0 0 0 0 0 0 0 0 0 0 0 0 0 0 0 0 0 0 0 0 0 0 12 121 
320 573 835 1085 1327 1546 1773 2002 2223 2420 2581 2696 2783 2864 2926 3014 
3108 3183 3217 3259 3280 3283 3239 3140 2996 2817 2637 2464 2292 2118 1968 1841 
1750 1678 1641
0 0 0 0 0 0 0 0 0 0 0 0 0 0 0 0 0 0 0 0 0 0 0 0 0 0 0 0 0 0 0 0 0 0 0 0 13 140 
375 627 901 1184 1529 1827 2070 2215 2347 2535 2731 2912 3064 3169 3243 3291 
3380 3412 3420 3412 3378 3328 3282 3213 3098 2937 2753 2560 2362 2169 1995 1853 
1754 1682 1641
0 0 0 0 0 0 0 0 0 0 0 0 0 0 0 0 0 0 0 0 0 0 0 0 0 0 0 0 0 0 0 0 0 0 0 0 16 146 
350 594 831 1060 1283 1491 1721 1962 2196 2419 2596 2706 2798 2896 2957 3045 
3140 3221 3264 3295 3310 3316 3274 3174 3026 2844 2660 2481 2310 2134 1979 1851 
1758 1685 1641
0 0 0 0 0 0 0 0 0 0 0 0 0 0 0 0 0 0 0 0 0 0 0 0 0 0 0 0 0 0 0 0 0 0 0 0 16 130 
297 525 751 950 1127 1298 1469 1724 1991 2229 2445 2610 2701 2723 2790 2896 3009 
3106 3175 3191 3210 3235 3205 3095 2935 2763 2596 2415 2253 2100 1961 1848 1757 
1680 1641
0 0 0 0 0 0 0 0 0 0 0 0 0 0 0 0 0 0 0 0 0 0 0 0 0 0 0 0 0 0 0 0 0 0 0 0 17 148 
325 596 846 1084 1289 1464 1678 1917 2175 2421 2619 2776 2835 2912 2955 3024 
3101 3169 3220 3265 3260 3221 3161 3048 2892 2728 2556 2379 2219 2084 1957 1851 
1757 1678 1641
0 0 0 0 0 0 0 0 0 0 0 0 0 0 0 0 0 0 0 0 0 0 0 0 0 0 0 0 0 0 0 0 0 0 0 0 21 143 
354 618 894 1151 1434 1703 1951 2179 2382 2663 2910 3137 3302 3411 3488 3530 
3558 3553 3515 3445 3359 3234 3119 3001 2837 2656 2484 2323 2173 2066 1964 1859 
1761 1675 1641
0 0 0 0 0 0 0 0 0 0 0 0 0 0 0 0 0 0 0 0 0 0 0 0 0 0 0 0 0 0 0 0 0 0 0 0 13 120 
340 587 849 1091 1300 1487 1699 1942 2191 2422 2603 2732 2804 2873 2905 2968 
3046 3125 3178 3231 3225 3192 3135 3021 2872 2711 2541 2369 2210 2078 1950 1847 
1756 1675 1641
0 0 0 0 0 0 0 0 0 0 0 0 0 0 0 0 0 0 0 0 0 0 0 0 0 0 0 0 0 0 0 0 0 0 0 0 9 102 
271 488 720 939 1138 1318 1501 1756 2012 2224 2412 2564 2658 2681 2743 2852 2957 
3048 3120 3138 3161 3194 3167 3054 2900 2733 2571 2395 2236 2088 1953 1840 1750 
1676 1641
0 0 0 0 0 0 0 0 0 0 0 0 0 0 0 0 0 0 0 0 0 0 0 0 0 0 0 0 0 0 0 0 0 0 0 0 12 121 
320 573 835 1085 1327 1546 1773 2002 2223 2420 2581 2696 2783 2864 2926 3014 
3108 3183 3217 3259 3280 3283 3239 3140 2996 2817 2637 2464 2292 2118 1968 1841 
1750 1678 1641
0 0 0 0 0 0 0 0 0 0 0 0 0 0 0 0 0 0 0 0 0 0 0 0 0 0 0 0 0 0 0 0 0 0 0 0 13 140 
375 627 901 1184 1529 1827 2070 2215 2347 2535 2731 2912 3064 3169 3243 3291 
3380 3412 3420 3412 3378 3328 3282 3213 3098 2937 2753 2560 2362 2169 1995 1853 
1754 1682 1641
0 0 0 0 0 0 0 0 0 0 0 0 0 0 0 0 0 0 0 0 0 0 0 0 0 0 0 0 0 0 0 0 0 0 0 0 16 146 
350 594 831 1060 1283 1491 1721 1962 2196 2419 2596 2706 2798 2896 2957 3045 
3140 3221 3264 3295 3310 3316 3274 3174 3026 2844 2660 2481 2310 2134 1979 1851 
1758 1685 1641
0 0 0 0 0 0 0 0 0 0 0 0 0 0 0 0 0 0 0 0 0 0 0 0 0 0 0 0 0 0 0 0 0 0 0 0 16 130 
297 525 751 950 1127 1298 1469 1724 1991 2229 2445 2610 2701 2723 2790 2896 3009 
3106 3175 3191 3210 3235 3205 3095 2935 2763 2596 2415 2253 2100 1961 1848 1757 
1680 1641
0 0 0 0 0 0 0 0 0 0 0 0 0 0 0 0 0 0 0 0 0 0 0 0 0 0 0 0 0 0 0 0 0 0 0 0 17 148 
325 596 846 1084 1289 1464 1678 1917 2175 2421 2619 2776 2835 2912 2955 3024 
3101 3169 3220 3265 3260 3221 3161 3048 2892 2728 2556 2379 2219 2084 1957 1851 
1757 1678 1641
0 0 0 0 0 0 0 0 0 0 0 0 0 0 0 0 0 0 0 0 0 0 0 0 0 0 0 0 0 0 0 0 0 0 0 0 21 143 
354 618 894 1151 1434 1703 1951 2179 2382 2663 2910 3137 3302 3411 3488 3530 
3558 3553 3515 3445 3359 3234 3119 3001 2837 2656 2484 2323 2173 2066 1964 1859 
1761 1675 1641
0 0 0 0 0 0 0 0 0 0 0 0 0 0 0 0 0 0 0 0 0 0 0 0 0 0 0 0 0 0 0 0 0 0 0 0 13 120 
340 587 849 1091 1300 1487 1699 1942 2191 2422 2603 2732 2804 2873 2905 2968 
3046 3125 3178 3231 3225 3192 3135 3021 2872 2711 2541 2369 2210 2078 1950 1847 
1756 1675 1641
0 0 0 0 0 0 0 0 0 0 0 0 0 0 0 0 0 0 0 0 0 0 0 0 0 0 0 0 0 0 0 0 0 0 0 0 9 102 
271 488 720 939 1138 1318 1501 1756 2012 2224 2412 2564 2658 2681 2743 2852 2957 
3048 3120 3138 3161 3194 3167 3054 2900 2733 2571 2395 2236 2088 1953 1840 1750 
1676 1641
0 0 0 0 0 0 0 0 0 0 0 0 0 0 0 0 0 0 0 0 0 0 0 0 0 0 0 0 0 0 0 0 0 0 0 0 12 121 
320 573 835 1085 1327 1546 1773 2002 2223 2420 2581 2696 2783 2864 2926 3014 
3108 3183 3217 3259 3280 3283 3239 3140 2996 2817 2637 2464 2292 2118 1968 1841 
1750 1678 1641
0 0 0 0 0 0 0 0 0 0 0 0 0 0 0 0 0 0 0 0 0 0 0 0 0 0 0 0 0 0 0 0 0 0 0 0 13 140 
375 627 901 1184 1529 1827 2070 2215 2347 2535 2731 2912 3064 3169 3243 3291 
3380 3412 3420 3412 3378 3328 3282 3213 3098 2937 2753 2560 2362 2169 1995 1853 
1754 1682 1641

