IESNA:LM-63-2002
[TEST]253P152
[TESTLAB]METALUX LABORITORIES
[ISSUEDATE]05/14/08
[MANUFAC]COOPER LIGHTING - SHAPER
[LUMCAT]1270-36-CFL/6/27 
[LUMINAIRE]SHAPER 36 INCH 1270 SERIES SOLID INDIRECT INTERIOR PENDANT FIXTURE
[LAMP]SIX 24 WATT GX24 T4 COMPACT FLUORESCENT LAMPS
[MORE]F24BX - 1800 LUMENS - 24 WATTS
[MORE]THIS FILE WAS PRORATED FROM TEST NO: 253P152
TILT=NONE
6 1800 1 73 25 1 1 -3 -3 0.1
1 1 144
0 2.5 5 7.5 10 12.5 15 17.5 20 22.5
25 27.5 30 32.5 35 37.5 40 42.5 45 47.5
50 52.5 55 57.5 60 62.5 65 67.5 70 72.5
75 77.5 80 82.5 85 87.5 90 92.5 95 97.5
100 102.5 105 107.5 110 112.5 115 117.5 120 122.5
125 127.5 130 132.5 135 137.5 140 142.5 145 147.5
150 152.5 155 157.5 160 162.5 165 167.5 170 172.5
175 177.5 180
0 20 30 40 60 80 90 100 120 140
150 160 180 200 210 220 240 260 270 280
300 320 330 340 360
0 0 0 0 0 0 0 0 0 0
0 0 0 0 0 0 0 0 0 0
0 0 0 0 0 0 0 0 0 0
0 0 0 0 0 0 20 92.6 257.7 481.7
699.4 912 1163.4 1363.4 1526.3 1650.9 1752 1865.7 2012 2144
2265.7 2352.6 2387.4 2405.7 2446.3 2481.1 2489.7 2478.9 2442.3 2385.7
2340 2281.7 2170.3 2041.1 1908.6 1777.7 1653.7 1529.7 1414.9 1308.6
1245.7 1232 1225.7
0 0 0 0 0 0 0 0 0 0
0 0 0 0 0 0 0 0 0 0
0 0 0 0 0 0 0 0 0 0
0 0 0 0 0 0 15 85.7 233.7 407.4
582.3 750.3 920.6 1096.6 1268.6 1449.1 1612.6 1766.3 1905.7 2006.9
2073.7 2116.6 2148.6 2199.4 2264.6 2326.9 2357.7 2361.1 2355.4 2350.9
2320 2228.6 2099.4 1968.6 1846.9 1736.6 1631.4 1518.9 1409.7 1310.9
1252.6 1231.4 1225.7
0 0 0 0 0 0 0 0 0 0
0 0 0 0 0 0 0 0 0 0
0 0 0 0 0 0 0 0 0 0
0 0 0 0 0 0 13 73.7 210.3 370.3
517.1 664 806.9 945.7 1084.6 1266.9 1456 1617.7 1762.9 1890.3
1975.4 1992.6 2015.4 2081.7 2169.1 2237.1 2285.7 2294.9 2285.1 2290.9
2256.6 2161.1 2045.1 1927.4 1814.3 1706.9 1604 1501.7 1394.3 1304
1249.1 1228 1225.7
0 0 0 0 0 0 0 0 0 0
0 0 0 0 0 0 0 0 0 0
0 0 0 0 0 0 0 0 0 0
0 0 0 0 0 0 15 87.4 241.7 427.4
594.9 764 924.6 1081.1 1242.9 1394.3 1564 1744 1880 1973.1
2042.9 2101.1 2140 2171.4 2213.7 2248 2272 2298.9 2288.6 2221.1
2152.6 2078.3 1979.4 1873.1 1766.3 1658.9 1560.6 1466.9 1372 1295.4
1245.7 1224.6 1225.7
0 0 0 0 0 0 0 0 0 0
0 0 0 0 0 0 0 0 0 0
0 0 0 0 0 0 0 0 0 0
0 0 0 0 0 0 20 81.1 253.7 456.6
659.4 852.6 1045.7 1220.6 1372 1497.1 1649.1 1862.9 2048.6 2204.6
2333.1 2433.7 2493.1 2514.3 2487.4 2449.1 2410.9 2361.7 2303.4 2221.1
2142.9 2076 1985.7 1870.9 1745.7 1618.3 1505.7 1417.1 1348 1287.4
1248.6 1225.7 1225.7
0 0 0 0 0 0 0 0 0 0
0 0 0 0 0 0 0 0 0 0
0 0 0 0 0 0 0 0 0 0
0 0 0 0 0 0 18 64 205.7 389.1
580 769.7 932 1065.7 1228 1409.1 1582.9 1738.9 1859.4 1964.6
2025.7 2067.4 2105.1 2136.6 2184 2233.1 2256.6 2279.4 2274.3 2224.6
2162.9 2089.1 1988 1881.7 1776 1666.9 1570.9 1476.6 1379.4 1298.3
1248 1226.3 1225.7
0 0 0 0 0 0 0 0 0 0
0 0 0 0 0 0 0 0 0 0
0 0 0 0 0 0 0 0 0 0
0 0 0 0 0 0 12 49.7 182.3 352.6
530.3 693.7 840 1009.1 1166.9 1343.4 1520.6 1672 1810.9 1926.9
1997.1 2017.1 2021.1 2080 2164 2229.1 2280 2289.7 2280 2290.3
2265.1 2168.6 2052 1933.1 1816.6 1709.7 1609.1 1504 1398.9 1306.3
1250.3 1228.6 1225.7
0 0 0 0 0 0 0 0 0 0
0 0 0 0 0 0 0 0 0 0
0 0 0 0 0 0 0 0 0 0
0 0 0 0 0 0 21 66.3 212.6 412.6
603.4 785.1 1000.6 1192 1355.4 1532 1693.1 1841.1 1959.4 2038.9
2091.4 2129.7 2166.3 2206.3 2265.1 2324 2353.1 2367.4 2368 2357.1
2323.4 2233.7 2104.6 1973.1 1850.9 1739.4 1630.3 1517.7 1409.1 1310.9
1250.9 1230.9 1225.7
0 0 0 0 0 0 0 0 0 0
0 0 0 0 0 0 0 0 0 0
0 0 0 0 0 0 0 0 0 0
0 0 0 0 0 0 20 92.6 257.7 481.7
699.4 912 1163.4 1363.4 1526.3 1650.9 1752 1865.7 2012 2144
2265.7 2352.6 2387.4 2405.7 2446.3 2481.1 2489.7 2478.9 2442.3 2385.7
2340 2281.7 2170.3 2041.1 1908.6 1777.7 1653.7 1529.7 1414.9 1308.6
1245.7 1232 1225.7
0 0 0 0 0 0 0 0 0 0
0 0 0 0 0 0 0 0 0 0
0 0 0 0 0 0 0 0 0 0
0 0 0 0 0 0 15 85.7 233.7 407.4
582.3 750.3 920.6 1096.6 1268.6 1449.1 1612.6 1766.3 1905.7 2006.9
2073.7 2116.6 2148.6 2199.4 2264.6 2326.9 2357.7 2361.1 2355.4 2350.9
2320 2228.6 2099.4 1968.6 1846.9 1736.6 1631.4 1518.9 1409.7 1310.9
1252.6 1231.4 1225.7
0 0 0 0 0 0 0 0 0 0
0 0 0 0 0 0 0 0 0 0
0 0 0 0 0 0 0 0 0 0
0 0 0 0 0 0 13 73.7 210.3 370.3
517.1 664 806.9 945.7 1084.6 1266.9 1456 1617.7 1762.9 1890.3
1975.4 1992.6 2015.4 2081.7 2169.1 2237.1 2285.7 2294.9 2285.1 2290.9
2256.6 2161.1 2045.1 1927.4 1814.3 1706.9 1604 1501.7 1394.3 1304
1249.1 1228 1225.7
0 0 0 0 0 0 0 0 0 0
0 0 0 0 0 0 0 0 0 0
0 0 0 0 0 0 0 0 0 0
0 0 0 0 0 0 15 87.4 241.7 427.4
594.9 764 924.6 1081.1 1242.9 1394.3 1564 1744 1880 1973.1
2042.9 2101.1 2140 2171.4 2213.7 2248 2272 2298.9 2288.6 2221.1
2152.6 2078.3 1979.4 1873.1 1766.3 1658.9 1560.6 1466.9 1372 1295.4
1245.7 1224.6 1225.7
0 0 0 0 0 0 0 0 0 0
0 0 0 0 0 0 0 0 0 0
0 0 0 0 0 0 0 0 0 0
0 0 0 0 0 0 20 81.1 253.7 456.6
659.4 852.6 1045.7 1220.6 1372 1497.1 1649.1 1862.9 2048.6 2204.6
2333.1 2433.7 2493.1 2514.3 2487.4 2449.1 2410.9 2361.7 2303.4 2221.1
2142.9 2076 1985.7 1870.9 1745.7 1618.3 1505.7 1417.1 1348 1287.4
1248.6 1225.7 1225.7
0 0 0 0 0 0 0 0 0 0
0 0 0 0 0 0 0 0 0 0
0 0 0 0 0 0 0 0 0 0
0 0 0 0 0 0 18 64 205.7 389.1
580 769.7 932 1065.7 1228 1409.1 1582.9 1738.9 1859.4 1964.6
2025.7 2067.4 2105.1 2136.6 2184 2233.1 2256.6 2279.4 2274.3 2224.6
2162.9 2089.1 1988 1881.7 1776 1666.9 1570.9 1476.6 1379.4 1298.3
1248 1226.3 1225.7
0 0 0 0 0 0 0 0 0 0
0 0 0 0 0 0 0 0 0 0
0 0 0 0 0 0 0 0 0 0
0 0 0 0 0 0 12 49.7 182.3 352.6
530.3 693.7 840 1009.1 1166.9 1343.4 1520.6 1672 1810.9 1926.9
1997.1 2017.1 2021.1 2080 2164 2229.1 2280 2289.7 2280 2290.3
2265.1 2168.6 2052 1933.1 1816.6 1709.7 1609.1 1504 1398.9 1306.3
1250.3 1228.6 1225.7
0 0 0 0 0 0 0 0 0 0
0 0 0 0 0 0 0 0 0 0
0 0 0 0 0 0 0 0 0 0
0 0 0 0 0 0 21 66.3 212.6 412.6
603.4 785.1 1000.6 1192 1355.4 1532 1693.1 1841.1 1959.4 2038.9
2091.4 2129.7 2166.3 2206.3 2265.1 2324 2353.1 2367.4 2368 2357.1
2323.4 2233.7 2104.6 1973.1 1850.9 1739.4 1630.3 1517.7 1409.1 1310.9
1250.9 1230.9 1225.7
0 0 0 0 0 0 0 0 0 0
0 0 0 0 0 0 0 0 0 0
0 0 0 0 0 0 0 0 0 0
0 0 0 0 0 0 20 92.6 257.7 481.7
699.4 912 1163.4 1363.4 1526.3 1650.9 1752 1865.7 2012 2144
2265.7 2352.6 2387.4 2405.7 2446.3 2481.1 2489.7 2478.9 2442.3 2385.7
2340 2281.7 2170.3 2041.1 1908.6 1777.7 1653.7 1529.7 1414.9 1308.6
1245.7 1232 1225.7
0 0 0 0 0 0 0 0 0 0
0 0 0 0 0 0 0 0 0 0
0 0 0 0 0 0 0 0 0 0
0 0 0 0 0 0 15 85.7 233.7 407.4
582.3 750.3 920.6 1096.6 1268.6 1449.1 1612.6 1766.3 1905.7 2006.9
2073.7 2116.6 2148.6 2199.4 2264.6 2326.9 2357.7 2361.1 2355.4 2350.9
2320 2228.6 2099.4 1968.6 1846.9 1736.6 1631.4 1518.9 1409.7 1310.9
1252.6 1231.4 1225.7
0 0 0 0 0 0 0 0 0 0
0 0 0 0 0 0 0 0 0 0
0 0 0 0 0 0 0 0 0 0
0 0 0 0 0 0 13 73.7 210.3 370.3
517.1 664 806.9 945.7 1084.6 1266.9 1456 1617.7 1762.9 1890.3
1975.4 1992.6 2015.4 2081.7 2169.1 2237.1 2285.7 2294.9 2285.1 2290.9
2256.6 2161.1 2045.1 1927.4 1814.3 1706.9 1604 1501.7 1394.3 1304
1249.1 1228 1225.7
0 0 0 0 0 0 0 0 0 0
0 0 0 0 0 0 0 0 0 0
0 0 0 0 0 0 0 0 0 0
0 0 0 0 0 0 15 87.4 241.7 427.4
594.9 764 924.6 1081.1 1242.9 1394.3 1564 1744 1880 1973.1
2042.9 2101.1 2140 2171.4 2213.7 2248 2272 2298.9 2288.6 2221.1
2152.6 2078.3 1979.4 1873.1 1766.3 1658.9 1560.6 1466.9 1372 1295.4
1245.7 1224.6 1225.7
0 0 0 0 0 0 0 0 0 0
0 0 0 0 0 0 0 0 0 0
0 0 0 0 0 0 0 0 0 0
0 0 0 0 0 0 20 81.1 253.7 456.6
659.4 852.6 1045.7 1220.6 1372 1497.1 1649.1 1862.9 2048.6 2204.6
2333.1 2433.7 2493.1 2514.3 2487.4 2449.1 2410.9 2361.7 2303.4 2221.1
2142.9 2076 1985.7 1870.9 1745.7 1618.3 1505.7 1417.1 1348 1287.4
1248.6 1225.7 1225.7
0 0 0 0 0 0 0 0 0 0
0 0 0 0 0 0 0 0 0 0
0 0 0 0 0 0 0 0 0 0
0 0 0 0 0 0 18 64 205.7 389.1
580 769.7 932 1065.7 1228 1409.1 1582.9 1738.9 1859.4 1964.6
2025.7 2067.4 2105.1 2136.6 2184 2233.1 2256.6 2279.4 2274.3 2224.6
2162.9 2089.1 1988 1881.7 1776 1666.9 1570.9 1476.6 1379.4 1298.3
1248 1226.3 1225.7
0 0 0 0 0 0 0 0 0 0
0 0 0 0 0 0 0 0 0 0
0 0 0 0 0 0 0 0 0 0
0 0 0 0 0 0 12 49.7 182.3 352.6
530.3 693.7 840 1009.1 1166.9 1343.4 1520.6 1672 1810.9 1926.9
1997.1 2017.1 2021.1 2080 2164 2229.1 2280 2289.7 2280 2290.3
2265.1 2168.6 2052 1933.1 1816.6 1709.7 1609.1 1504 1398.9 1306.3
1250.3 1228.6 1225.7
0 0 0 0 0 0 0 0 0 0
0 0 0 0 0 0 0 0 0 0
0 0 0 0 0 0 0 0 0 0
0 0 0 0 0 0 21 66.3 212.6 412.6
603.4 785.1 1000.6 1192 1355.4 1532 1693.1 1841.1 1959.4 2038.9
2091.4 2129.7 2166.3 2206.3 2265.1 2324 2353.1 2367.4 2368 2357.1
2323.4 2233.7 2104.6 1973.1 1850.9 1739.4 1630.3 1517.7 1409.1 1310.9
1250.9 1230.9 1225.7
0 0 0 0 0 0 0 0 0 0
0 0 0 0 0 0 0 0 0 0
0 0 0 0 0 0 0 0 0 0
0 0 0 0 0 0 20 92.6 257.7 481.7
699.4 912 1163.4 1363.4 1526.3 1650.9 1752 1865.7 2012 2144
2265.7 2352.6 2387.4 2405.7 2446.3 2481.1 2489.7 2478.9 2442.3 2385.7
2340 2281.7 2170.3 2041.1 1908.6 1777.7 1653.7 1529.7 1414.9 1308.6
1245.7 1232 1225.7
