IESNA:LM-63-2002
[TEST]253P152
[TESTLAB]METALUX LABORITORIES
[ISSUEDATE]05/14/08
[MANUFAC]COOPER LIGHTING - SHAPER
[LUMCAT]1270-36-CFL/6/40 
[LUMINAIRE]SHAPER 36 INCH 1270 SERIES SOLID INDIRECT INTERIOR PENDANT FIXTURE
[LAMP]SIX 40 WATT GX24 T4 COMPACT FLUORESCENT LAMPS
[MORE]F40BX - 3150 LUMENS - 40 WATTS
TILT=NONE
6 3150 1 73 25 1 1 -3.000000 -3.000000 0.000000
1.000 1 240
0 2.5 5 7.5 10 12.5 15 17.5 20 22.5 25 27.5 30 32.5 35 37.5 40 42.5 45 47.5 50 
52.5 55 57.5 60 62.5 65 67.5 70 72.5 75 77.5 80 82.5 85 87.5 90 92.5 95 97.5 100 
102.5 105 107.5 110 112.5 115 117.5 120 122.5 125 127.5 130 132.5 135 137.5 140 
142.5 145 147.5 150 152.5 155 157.5 160 162.5 165 167.5 170 172.5 175 177.5 180 
0 20 30 40 60 80 90 100 120 140 150 160 180 200 210 220 240 260 270 280 300 320 
330 340 360
0 0 0 0 0 0 0 0 0 0 0 0 0 0 0 0 0 0 0 0 0 0 0 0 0 0 0 0 0 0 0 0 0 0 0 0 20 162
451 843 1224 1596 2036 2386 2671 2889 3066 3265 3521 3752 3965 4117 4178 4210
4281 4342 4357 4338 4274 4175 4095 3993 3798 3572 3340 3111 2894 2677 2476 2290
2180 2156 2145
0 0 0 0 0 0 0 0 0 0 0 0 0 0 0 0 0 0 0 0 0 0 0 0 0 0 0 0 0 0 0 0 0 0 0 0 15 150
409 713 1019 1313 1611 1919 2220 2536 2822 3091 3335 3512 3629 3704 3760 3849
3963 4072 4126 4132 4122 4114 4060 3900 3674 3445 3232 3039 2855 2658 2467 2294
2192 2155 2145
0 0 0 0 0 0 0 0 0 0 0 0 0 0 0 0 0 0 0 0 0 0 0 0 0 0 0 0 0 0 0 0 0 0 0 0 13 129
368 648 905 1162 1412 1655 1898 2217 2548 2831 3085 3308 3457 3487 3527 3643
3796 3915 4000 4016 3999 4009 3949 3782 3579 3373 3175 2987 2807 2628 2440 2282
2186 2149 2145
0 0 0 0 0 0 0 0 0 0 0 0 0 0 0 0 0 0 0 0 0 0 0 0 0 0 0 0 0 0 0 0 0 0 0 0 15 153
423 748 1041 1337 1618 1892 2175 2440 2737 3052 3290 3453 3575 3677 3745 3800
3874 3934 3976 4023 4005 3887 3767 3637 3464 3278 3091 2903 2731 2567 2401 2267
2180 2143 2145
0 0 0 0 0 0 0 0 0 0 0 0 0 0 0 0 0 0 0 0 0 0 0 0 0 0 0 0 0 0 0 0 0 0 0 0 20 142
444 799 1154 1492 1830 2136 2401 2620 2886 3260 3585 3858 4083 4259 4363 4400
4353 4286 4219 4133 4031 3887 3750 3633 3475 3274 3055 2832 2635 2480 2359 2253
2185 2145 2145
0 0 0 0 0 0 0 0 0 0 0 0 0 0 0 0 0 0 0 0 0 0 0 0 0 0 0 0 0 0 0 0 0 0 0 0 18 112
360 681 1015 1347 1631 1865 2149 2466 2770 3043 3254 3438 3545 3618 3684 3739
3822 3908 3949 3989 3980 3893 3785 3656 3479 3293 3108 2917 2749 2584 2414 2272
2184 2146 2145
0 0 0 0 0 0 0 0 0 0 0 0 0 0 0 0 0 0 0 0 0 0 0 0 0 0 0 0 0 0 0 0 0 0 0 0 12 87
319 617 928 1214 1470 1766 2042 2351 2661 2926 3169 3372 3495 3530 3537 3640
3787 3901 3990 4007 3990 4008 3964 3795 3591 3383 3179 2992 2816 2632 2448 2286
2188 2150 2145
0 0 0 0 0 0 0 0 0 0 0 0 0 0 0 0 0 0 0 0 0 0 0 0 0 0 0 0 0 0 0 0 0 0 0 0 21 116
372 722 1056 1374 1751 2086 2372 2681 2963 3222 3429 3568 3660 3727 3791 3861
3964 4067 4118 4143 4144 4125 4066 3909 3683 3453 3239 3044 2853 2656 2466 2294
2189 2154 2145
0 0 0 0 0 0 0 0 0 0 0 0 0 0 0 0 0 0 0 0 0 0 0 0 0 0 0 0 0 0 0 0 0 0 0 0 20 162
451 843 1224 1596 2036 2386 2671 2889 3066 3265 3521 3752 3965 4117 4178 4210
4281 4342 4357 4338 4274 4175 4095 3993 3798 3572 3340 3111 2894 2677 2476 2290
2180 2156 2145
0 0 0 0 0 0 0 0 0 0 0 0 0 0 0 0 0 0 0 0 0 0 0 0 0 0 0 0 0 0 0 0 0 0 0 0 15 150
409 713 1019 1313 1611 1919 2220 2536 2822 3091 3335 3512 3629 3704 3760 3849
3963 4072 4126 4132 4122 4114 4060 3900 3674 3445 3232 3039 2855 2658 2467 2294
2192 2155 2145
0 0 0 0 0 0 0 0 0 0 0 0 0 0 0 0 0 0 0 0 0 0 0 0 0 0 0 0 0 0 0 0 0 0 0 0 13 129
368 648 905 1162 1412 1655 1898 2217 2548 2831 3085 3308 3457 3487 3527 3643
3796 3915 4000 4016 3999 4009 3949 3782 3579 3373 3175 2987 2807 2628 2440 2282
2186 2149 2145
0 0 0 0 0 0 0 0 0 0 0 0 0 0 0 0 0 0 0 0 0 0 0 0 0 0 0 0 0 0 0 0 0 0 0 0 15 153
423 748 1041 1337 1618 1892 2175 2440 2737 3052 3290 3453 3575 3677 3745 3800
3874 3934 3976 4023 4005 3887 3767 3637 3464 3278 3091 2903 2731 2567 2401 2267
2180 2143 2145
0 0 0 0 0 0 0 0 0 0 0 0 0 0 0 0 0 0 0 0 0 0 0 0 0 0 0 0 0 0 0 0 0 0 0 0 20 142
444 799 1154 1492 1830 2136 2401 2620 2886 3260 3585 3858 4083 4259 4363 4400
4353 4286 4219 4133 4031 3887 3750 3633 3475 3274 3055 2832 2635 2480 2359 2253
2185 2145 2145
0 0 0 0 0 0 0 0 0 0 0 0 0 0 0 0 0 0 0 0 0 0 0 0 0 0 0 0 0 0 0 0 0 0 0 0 18 112
360 681 1015 1347 1631 1865 2149 2466 2770 3043 3254 3438 3545 3618 3684 3739
3822 3908 3949 3989 3980 3893 3785 3656 3479 3293 3108 2917 2749 2584 2414 2272
2184 2146 2145
0 0 0 0 0 0 0 0 0 0 0 0 0 0 0 0 0 0 0 0 0 0 0 0 0 0 0 0 0 0 0 0 0 0 0 0 12 87
319 617 928 1214 1470 1766 2042 2351 2661 2926 3169 3372 3495 3530 3537 3640
3787 3901 3990 4007 3990 4008 3964 3795 3591 3383 3179 2992 2816 2632 2448 2286
2188 2150 2145
0 0 0 0 0 0 0 0 0 0 0 0 0 0 0 0 0 0 0 0 0 0 0 0 0 0 0 0 0 0 0 0 0 0 0 0 21 116
372 722 1056 1374 1751 2086 2372 2681 2963 3222 3429 3568 3660 3727 3791 3861
3964 4067 4118 4143 4144 4125 4066 3909 3683 3453 3239 3044 2853 2656 2466 2294
2189 2154 2145
0 0 0 0 0 0 0 0 0 0 0 0 0 0 0 0 0 0 0 0 0 0 0 0 0 0 0 0 0 0 0 0 0 0 0 0 20 162
451 843 1224 1596 2036 2386 2671 2889 3066 3265 3521 3752 3965 4117 4178 4210
4281 4342 4357 4338 4274 4175 4095 3993 3798 3572 3340 3111 2894 2677 2476 2290
2180 2156 2145
0 0 0 0 0 0 0 0 0 0 0 0 0 0 0 0 0 0 0 0 0 0 0 0 0 0 0 0 0 0 0 0 0 0 0 0 15 150
409 713 1019 1313 1611 1919 2220 2536 2822 3091 3335 3512 3629 3704 3760 3849
3963 4072 4126 4132 4122 4114 4060 3900 3674 3445 3232 3039 2855 2658 2467 2294
2192 2155 2145
0 0 0 0 0 0 0 0 0 0 0 0 0 0 0 0 0 0 0 0 0 0 0 0 0 0 0 0 0 0 0 0 0 0 0 0 13 129
368 648 905 1162 1412 1655 1898 2217 2548 2831 3085 3308 3457 3487 3527 3643
3796 3915 4000 4016 3999 4009 3949 3782 3579 3373 3175 2987 2807 2628 2440 2282
2186 2149 2145
0 0 0 0 0 0 0 0 0 0 0 0 0 0 0 0 0 0 0 0 0 0 0 0 0 0 0 0 0 0 0 0 0 0 0 0 15 153
423 748 1041 1337 1618 1892 2175 2440 2737 3052 3290 3453 3575 3677 3745 3800
3874 3934 3976 4023 4005 3887 3767 3637 3464 3278 3091 2903 2731 2567 2401 2267
2180 2143 2145
0 0 0 0 0 0 0 0 0 0 0 0 0 0 0 0 0 0 0 0 0 0 0 0 0 0 0 0 0 0 0 0 0 0 0 0 20 142
444 799 1154 1492 1830 2136 2401 2620 2886 3260 3585 3858 4083 4259 4363 4400
4353 4286 4219 4133 4031 3887 3750 3633 3475 3274 3055 2832 2635 2480 2359 2253
2185 2145 2145
0 0 0 0 0 0 0 0 0 0 0 0 0 0 0 0 0 0 0 0 0 0 0 0 0 0 0 0 0 0 0 0 0 0 0 0 18 112
360 681 1015 1347 1631 1865 2149 2466 2770 3043 3254 3438 3545 3618 3684 3739
3822 3908 3949 3989 3980 3893 3785 3656 3479 3293 3108 2917 2749 2584 2414 2272
2184 2146 2145
0 0 0 0 0 0 0 0 0 0 0 0 0 0 0 0 0 0 0 0 0 0 0 0 0 0 0 0 0 0 0 0 0 0 0 0 12 87
319 617 928 1214 1470 1766 2042 2351 2661 2926 3169 3372 3495 3530 3537 3640
3787 3901 3990 4007 3990 4008 3964 3795 3591 3383 3179 2992 2816 2632 2448 2286
2188 2150 2145
0 0 0 0 0 0 0 0 0 0 0 0 0 0 0 0 0 0 0 0 0 0 0 0 0 0 0 0 0 0 0 0 0 0 0 0 21 116
372 722 1056 1374 1751 2086 2372 2681 2963 3222 3429 3568 3660 3727 3791 3861
3964 4067 4118 4143 4144 4125 4066 3909 3683 3453 3239 3044 2853 2656 2466 2294
2189 2154 2145
0 0 0 0 0 0 0 0 0 0 0 0 0 0 0 0 0 0 0 0 0 0 0 0 0 0 0 0 0 0 0 0 0 0 0 0 20 162
451 843 1224 1596 2036 2386 2671 2889 3066 3265 3521 3752 3965 4117 4178 4210
4281 4342 4357 4338 4274 4175 4095 3993 3798 3572 3340 3111 2894 2677 2476 2290
2180 2156 2145

