IESNA:LM-63-2002
[TEST]253p147
[TESTLAB]METALUX LABORITORIES
[ISSUEDATE]04/29/08
[MANUFAC]COOPER LIGHTING - SHAPER
[LUMCAT]1270-36-CFL/3/55 
[LUMINAIRE]SHAPER 36 INCH 1270 SERIES SOLID INDIRECT INTERIOR PENDANT FIXTURE
[LAMP]THREE 55 WATT GX24 T4 COMPACT FLUORESCENT LAMPS
[MORE](3)- F55BX - 4800 LUMENS - 55 WATTS
TILT=NONE
3 4800 1 73 25 1 1 -3.000000 -3.000000 0.000000
1.000 1 171
0 2.5 5 7.5 10 12.5 15 17.5 20 22.5 25 27.5 30 32.5 35 37.5 40 42.5 45 47.5 50 
52.5 55 57.5 60 62.5 65 67.5 70 72.5 75 77.5 80 82.5 85 87.5 90 92.5 95 97.5 100 
102.5 105 107.5 110 112.5 115 117.5 120 122.5 125 127.5 130 132.5 135 137.5 140 
142.5 145 147.5 150 152.5 155 157.5 160 162.5 165 167.5 170 172.5 175 177.5 180 
0 20 30 40 60 80 90 100 120 140 150 160 180 200 210 220 240 260 270 280 300 320 
330 340  360 
0 0 0 0 0 0 0 0 0 0 0 0 0 0 0 0 0 0 0 0 0 0 0 0 0 0 0 0 0 0 0 0 0 0 0 0 7 156 
459 736 1070 1417 1864 2246 2437 2470 2567 2732 2884 2993 3119 3340 3501 3531 
3462 3310 3164 2994 2808 2592 2401 2266 2165 2021 1859 1707 1538 1381 1262 1164 
1078 1014 996
0 0 0 0 0 0 0 0 0 0 0 0 0 0 0 0 0 0 0 0 0 0 0 0 0 0 0 0 0 0 0 0 0 0 0 0 8 188 
439 709 951 1163 1464 1762 2044 2278 2522 2729 2810 2869 3015 3144 3187 3139 
3042 2996 2987 2961 2863 2719 2587 2453 2275 2049 1841 1664 1502 1359 1256 1172 
1110 1050 996
0 0 0 0 0 0 0 0 0 0 0 0 0 0 0 0 0 0 0 0 0 0 0 0 0 0 0 0 0 0 0 0 0 0 0 0 10 182 
397 671 864 1079 1298 1571 1783 2077 2404 2688 2884 3013 3068 3119 3116 3056 
2994 2937 2886 2860 2793 2726 2648 2509 2301 2072 1852 1637 1470 1344 1251 1158 
1080 1043 996
0 0 0 0 0 0 0 0 0 0 0 0 0 0 0 0 0 0 0 0 0 0 0 0 0 0 0 0 0 0 0 0 0 0 0 0 11 212 
433 743 974 1240 1437 1680 1952 2281 2619 2915 3183 3328 3306 3204 3147 3130 
3096 3024 2922 2839 2832 2809 2717 2550 2341 2119 1869 1644 1461 1347 1253 1159 
1078 1016 996
0 0 0 0 0 0 0 0 0 0 0 0 0 0 0 0 0 0 0 0 0 0 0 0 0 0 0 0 0 0 0 0 0 0 0 0 22 208 
482 762 1099 1345 1627 1992 2419 2797 3109 3319 3470 3583 3570 3474 3367 3348 
3342 3286 3173 3022 2920 2846 2714 2538 2324 2086 1863 1658 1483 1359 1259 1162 
1079 1016 996
0 0 0 0 0 0 0 0 0 0 0 0 0 0 0 0 0 0 0 0 0 0 0 0 0 0 0 0 0 0 0 0 0 0 0 0 13 158 
425 716 962 1241 1441 1704 1979 2298 2641 2915 3162 3298 3303 3221 3159 3118 
3060 2999 2908 2827 2817 2788 2698 2535 2326 2097 1853 1630 1456 1344 1252 1159 
1081 1017 996
0 0 0 0 0 0 0 0 0 0 0 0 0 0 0 0 0 0 0 0 0 0 0 0 0 0 0 0 0 0 0 0 0 0 0 0 8 130 
358 619 845 1080 1318 1620 1860 2141 2448 2697 2849 2985 3047 3133 3120 3051 
2989 2935 2891 2868 2796 2717 2635 2493 2278 2045 1829 1624 1465 1338 1247 1157 
1078 1015 996
0 0 0 0 0 0 0 0 0 0 0 0 0 0 0 0 0 0 0 0 0 0 0 0 0 0 0 0 0 0 0 0 0 0 0 0 7 130 
379 663 932 1151 1476 1801 2117 2337 2534 2719 2811 2870 3026 3136 3181 3133 
3049 3011 3000 2966 2864 2717 2575 2427 2246 2024 1823 1654 1498 1354 1252 1160 
1078 1015 996
0 0 0 0 0 0 0 0 0 0 0 0 0 0 0 0 0 0 0 0 0 0 0 0 0 0 0 0 0 0 0 0 0 0 0 0 7 156 
459 736 1070 1417 1864 2246 2437 2470 2567 2732 2884 2993 3119 3340 3501 3531 
3462 3310 3164 2994 2808 2592 2401 2266 2165 2021 1859 1707 1538 1381 1262 1164 
1078 1014 996
0 0 0 0 0 0 0 0 0 0 0 0 0 0 0 0 0 0 0 0 0 0 0 0 0 0 0 0 0 0 0 0 0 0 0 0 8 188 
439 709 951 1163 1464 1762 2044 2278 2522 2729 2810 2869 3015 3144 3187 3139 
3042 2996 2987 2961 2863 2719 2587 2453 2275 2049 1841 1664 1502 1359 1256 1172 
1110 1050 996
0 0 0 0 0 0 0 0 0 0 0 0 0 0 0 0 0 0 0 0 0 0 0 0 0 0 0 0 0 0 0 0 0 0 0 0 10 182 
397 671 864 1079 1298 1571 1783 2077 2404 2688 2884 3013 3068 3119 3116 3056 
2994 2937 2886 2860 2793 2726 2648 2509 2301 2072 1852 1637 1470 1344 1251 1158 
1080 1043 996
0 0 0 0 0 0 0 0 0 0 0 0 0 0 0 0 0 0 0 0 0 0 0 0 0 0 0 0 0 0 0 0 0 0 0 0 11 212 
433 743 974 1240 1437 1680 1952 2281 2619 2915 3183 3328 3306 3204 3147 3130 
3096 3024 2922 2839 2832 2809 2717 2550 2341 2119 1869 1644 1461 1347 1253 1159 
1078 1016 996
0 0 0 0 0 0 0 0 0 0 0 0 0 0 0 0 0 0 0 0 0 0 0 0 0 0 0 0 0 0 0 0 0 0 0 0 22 208 
482 762 1099 1345 1627 1992 2419 2797 3109 3319 3470 3583 3570 3474 3367 3348 
3342 3286 3173 3022 2920 2846 2714 2538 2324 2086 1863 1658 1483 1359 1259 1162 
1079 1016 996
0 0 0 0 0 0 0 0 0 0 0 0 0 0 0 0 0 0 0 0 0 0 0 0 0 0 0 0 0 0 0 0 0 0 0 0 13 158 
425 716 962 1241 1441 1704 1979 2298 2641 2915 3162 3298 3303 3221 3159 3118 
3060 2999 2908 2827 2817 2788 2698 2535 2326 2097 1853 1630 1456 1344 1252 1159 
1081 1017 996
0 0 0 0 0 0 0 0 0 0 0 0 0 0 0 0 0 0 0 0 0 0 0 0 0 0 0 0 0 0 0 0 0 0 0 0 8 130 
358 619 845 1080 1318 1620 1860 2141 2448 2697 2849 2985 3047 3133 3120 3051 
2989 2935 2891 2868 2796 2717 2635 2493 2278 2045 1829 1624 1465 1338 1247 1157 
1078 1015 996
0 0 0 0 0 0 0 0 0 0 0 0 0 0 0 0 0 0 0 0 0 0 0 0 0 0 0 0 0 0 0 0 0 0 0 0 7 130 
379 663 932 1151 1476 1801 2117 2337 2534 2719 2811 2870 3026 3136 3181 3133 
3049 3011 3000 2966 2864 2717 2575 2427 2246 2024 1823 1654 1498 1354 1252 1160 
1078 1015 996
0 0 0 0 0 0 0 0 0 0 0 0 0 0 0 0 0 0 0 0 0 0 0 0 0 0 0 0 0 0 0 0 0 0 0 0 7 156 
459 736 1070 1417 1864 2246 2437 2470 2567 2732 2884 2993 3119 3340 3501 3531 
3462 3310 3164 2994 2808 2592 2401 2266 2165 2021 1859 1707 1538 1381 1262 1164 
1078 1014 996
0 0 0 0 0 0 0 0 0 0 0 0 0 0 0 0 0 0 0 0 0 0 0 0 0 0 0 0 0 0 0 0 0 0 0 0 8 188 
439 709 951 1163 1464 1762 2044 2278 2522 2729 2810 2869 3015 3144 3187 3139 
3042 2996 2987 2961 2863 2719 2587 2453 2275 2049 1841 1664 1502 1359 1256 1172 
1110 1050 996
0 0 0 0 0 0 0 0 0 0 0 0 0 0 0 0 0 0 0 0 0 0 0 0 0 0 0 0 0 0 0 0 0 0 0 0 10 182 
397 671 864 1079 1298 1571 1783 2077 2404 2688 2884 3013 3068 3119 3116 3056 
2994 2937 2886 2860 2793 2726 2648 2509 2301 2072 1852 1637 1470 1344 1251 1158 
1080 1043 996
0 0 0 0 0 0 0 0 0 0 0 0 0 0 0 0 0 0 0 0 0 0 0 0 0 0 0 0 0 0 0 0 0 0 0 0 11 212 
433 743 974 1240 1437 1680 1952 2281 2619 2915 3183 3328 3306 3204 3147 3130 
3096 3024 2922 2839 2832 2809 2717 2550 2341 2119 1869 1644 1461 1347 1253 1159 
1078 1016 996
0 0 0 0 0 0 0 0 0 0 0 0 0 0 0 0 0 0 0 0 0 0 0 0 0 0 0 0 0 0 0 0 0 0 0 0 22 208 
482 762 1099 1345 1627 1992 2419 2797 3109 3319 3470 3583 3570 3474 3367 3348 
3342 3286 3173 3022 2920 2846 2714 2538 2324 2086 1863 1658 1483 1359 1259 1162 
1079 1016 996
0 0 0 0 0 0 0 0 0 0 0 0 0 0 0 0 0 0 0 0 0 0 0 0 0 0 0 0 0 0 0 0 0 0 0 0 13 158 
425 716 962 1241 1441 1704 1979 2298 2641 2915 3162 3298 3303 3221 3159 3118 
3060 2999 2908 2827 2817 2788 2698 2535 2326 2097 1853 1630 1456 1344 1252 1159 
1081 1017 996
0 0 0 0 0 0 0 0 0 0 0 0 0 0 0 0 0 0 0 0 0 0 0 0 0 0 0 0 0 0 0 0 0 0 0 0 8 130 
358 619 845 1080 1318 1620 1860 2141 2448 2697 2849 2985 3047 3133 3120 3051 
2989 2935 2891 2868 2796 2717 2635 2493 2278 2045 1829 1624 1465 1338 1247 1157 
1078 1015 996
0 0 0 0 0 0 0 0 0 0 0 0 0 0 0 0 0 0 0 0 0 0 0 0 0 0 0 0 0 0 0 0 0 0 0 0 7 130 
379 663 932 1151 1476 1801 2117 2337 2534 2719 2811 2870 3026 3136 3181 3133 
3049 3011 3000 2966 2864 2717 2575 2427 2246 2024 1823 1654 1498 1354 1252 1160 
1078 1015 996
0 0 0 0 0 0 0 0 0 0 0 0 0 0 0 0 0 0 0 0 0 0 0 0 0 0 0 0 0 0 0 0 0 0 0 0 7 156 
459 736 1070 1417 1864 2246 2437 2470 2567 2732 2884 2993 3119 3340 3501 3531 
3462 3310 3164 2994 2808 2592 2401 2266 2165 2021 1859 1707 1538 1381 1262 1164 
1078 1014 996

