IESNA:LM-63-2002
[TEST]253p150
[TESTLAB]METALUX LABORITORIES
[ISSUEDATE]04/29/08
[MANUFAC]COOPER LIGHTING - SHAPER
[LUMCAT]1270-36-CFL/3/50
[LUMINAIRE]SHAPER 36 INCH 1270 SERIES SOLID INDIRECT INTERIOR PENDANT FIXTURE
[LAMP]THREE 50 WATT GX24 T4 COMPACT FLUORESCENT LAMPS
[MORE](3)F50BX - 4000 LUMENS - 50 WATTS
TILT=NONE
3 4000 1 73 25 1 1 -3.000000 -3.000000 0.000000
1.000 1 186
0 2.5 5 7.5 10 12.5 15 17.5 20 22.5 25 27.5 30 32.5 35 37.5 40 42.5 45 47.5 50 
52.5 55 57.5 60 62.5 65 67.5 70 72.5 75 77.5 80 82.5 85 87.5 90 92.5 95 97.5 100 
102.5 105 107.5 110 112.5 115 117.5 120 122.5 125 127.5 130 132.5 135 137.5 140 
142.5 145 147.5 150 152.5 155 157.5 160 162.5 165 167.5 170 172.5 175 177.5 180 
0 20 30 40 60 80 90 100 120 140 150 160 180 200 210 220 240 260 270 280 300 320 
330 340  360 
0 0 0 0 0 0 0 0 0 0 0 0 0 0 0 0 0 0 0 0 0 0 0 0 0 0 0 0 0 0 0 0 0 0 0 0 8 120 
367 593 842 1127 1504 1812 1973 1977 2042 2174 2299 2385 2464 2645 2795 2824 
2766 2643 2521 2402 2272 2096 1931 1823 1737 1616 1480 1351 1217 1091 1001 928 
875 842 837
0 0 0 0 0 0 0 0 0 0 0 0 0 0 0 0 0 0 0 0 0 0 0 0 0 0 0 0 0 0 0 0 0 0 0 0 8 145 
352 581 770 925 1161 1405 1615 1810 1989 2157 2211 2247 2352 2468 2500 2462 2393 
2344 2342 2340 2271 2148 2046 1953 1825 1642 1473 1331 1199 1082 1002 941 900 
867 837
0 0 0 0 0 0 0 0 0 0 0 0 0 0 0 0 0 0 0 0 0 0 0 0 0 0 0 0 0 0 0 0 0 0 0 0 9 147 
321 542 685 862 1026 1237 1395 1621 1888 2097 2256 2349 2408 2436 2441 2404 2352 
2309 2277 2262 2219 2177 2113 2007 1848 1675 1499 1326 1182 1081 1004 934 882 
869 837
0 0 0 0 0 0 0 0 0 0 0 0 0 0 0 0 0 0 0 0 0 0 0 0 0 0 0 0 0 0 0 0 0 0 0 0 12 171 
358 604 776 1003 1161 1335 1558 1805 2065 2289 2489 2608 2584 2506 2450 2442 
2423 2378 2303 2225 2227 2225 2159 2019 1854 1686 1503 1315 1170 1077 999 930 
875 841 837
0 0 0 0 0 0 0 0 0 0 0 0 0 0 0 0 0 0 0 0 0 0 0 0 0 0 0 0 0 0 0 0 0 0 0 0 16 166 
388 616 875 1066 1302 1570 1891 2190 2419 2601 2716 2799 2811 2742 2645 2633 
2641 2610 2512 2395 2295 2244 2154 2011 1834 1653 1490 1320 1177 1074 998 930 
877 838 837
0 0 0 0 0 0 0 0 0 0 0 0 0 0 0 0 0 0 0 0 0 0 0 0 0 0 0 0 0 0 0 0 0 0 0 0 10 119 
345 580 767 1001 1163 1357 1574 1816 2090 2301 2484 2607 2614 2548 2487 2459 
2426 2388 2318 2235 2235 2227 2161 2017 1851 1679 1493 1305 1164 1072 997 930 
877 840 837
0 0 0 0 0 0 0 0 0 0 0 0 0 0 0 0 0 0 0 0 0 0 0 0 0 0 0 0 0 0 0 0 0 0 0 0 7 94 295 
523 689 881 1064 1308 1487 1707 1952 2142 2265 2358 2422 2481 2478 2434 2377 
2337 2301 2289 2242 2189 2117 2007 1840 1657 1477 1309 1173 1072 996 927 874 840 
837
0 0 0 0 0 0 0 0 0 0 0 0 0 0 0 0 0 0 0 0 0 0 0 0 0 0 0 0 0 0 0 0 0 0 0 0 6 96 304 
540 752 920 1185 1455 1703 1885 2027 2177 2247 2282 2389 2502 2542 2504 2438 
2387 2383 2376 2301 2173 2063 1954 1815 1628 1461 1322 1189 1074 998 929 874 839 
837
0 0 0 0 0 0 0 0 0 0 0 0 0 0 0 0 0 0 0 0 0 0 0 0 0 0 0 0 0 0 0 0 0 0 0 0 8 120 
367 593 842 1127 1504 1812 1973 1977 2042 2174 2299 2385 2464 2645 2795 2824 
2766 2643 2521 2402 2272 2096 1931 1823 1737 1616 1480 1351 1217 1091 1001 928 
875 842 837
0 0 0 0 0 0 0 0 0 0 0 0 0 0 0 0 0 0 0 0 0 0 0 0 0 0 0 0 0 0 0 0 0 0 0 0 8 145 
352 581 770 925 1161 1405 1615 1810 1989 2157 2211 2247 2352 2468 2500 2462 2393 
2344 2342 2340 2271 2148 2046 1953 1825 1642 1473 1331 1199 1082 1002 941 900 
867 837
0 0 0 0 0 0 0 0 0 0 0 0 0 0 0 0 0 0 0 0 0 0 0 0 0 0 0 0 0 0 0 0 0 0 0 0 9 147 
321 542 685 862 1026 1237 1395 1621 1888 2097 2256 2349 2408 2436 2441 2404 2352 
2309 2277 2262 2219 2177 2113 2007 1848 1675 1499 1326 1182 1081 1004 934 882 
869 837
0 0 0 0 0 0 0 0 0 0 0 0 0 0 0 0 0 0 0 0 0 0 0 0 0 0 0 0 0 0 0 0 0 0 0 0 12 171 
358 604 776 1003 1161 1335 1558 1805 2065 2289 2489 2608 2584 2506 2450 2442 
2423 2378 2303 2225 2227 2225 2159 2019 1854 1686 1503 1315 1170 1077 999 930 
875 841 837
0 0 0 0 0 0 0 0 0 0 0 0 0 0 0 0 0 0 0 0 0 0 0 0 0 0 0 0 0 0 0 0 0 0 0 0 16 166 
388 616 875 1066 1302 1570 1891 2190 2419 2601 2716 2799 2811 2742 2645 2633 
2641 2610 2512 2395 2295 2244 2154 2011 1834 1653 1490 1320 1177 1074 998 930 
877 838 837
0 0 0 0 0 0 0 0 0 0 0 0 0 0 0 0 0 0 0 0 0 0 0 0 0 0 0 0 0 0 0 0 0 0 0 0 10 119 
345 580 767 1001 1163 1357 1574 1816 2090 2301 2484 2607 2614 2548 2487 2459 
2426 2388 2318 2235 2235 2227 2161 2017 1851 1679 1493 1305 1164 1072 997 930 
877 840 837
0 0 0 0 0 0 0 0 0 0 0 0 0 0 0 0 0 0 0 0 0 0 0 0 0 0 0 0 0 0 0 0 0 0 0 0 7 94 295 
523 689 881 1064 1308 1487 1707 1952 2142 2265 2358 2422 2481 2478 2434 2377 
2337 2301 2289 2242 2189 2117 2007 1840 1657 1477 1309 1173 1072 996 927 874 840 
837
0 0 0 0 0 0 0 0 0 0 0 0 0 0 0 0 0 0 0 0 0 0 0 0 0 0 0 0 0 0 0 0 0 0 0 0 6 96 304 
540 752 920 1185 1455 1703 1885 2027 2177 2247 2282 2389 2502 2542 2504 2438 
2387 2383 2376 2301 2173 2063 1954 1815 1628 1461 1322 1189 1074 998 929 874 839 
837
0 0 0 0 0 0 0 0 0 0 0 0 0 0 0 0 0 0 0 0 0 0 0 0 0 0 0 0 0 0 0 0 0 0 0 0 8 120 
367 593 842 1127 1504 1812 1973 1977 2042 2174 2299 2385 2464 2645 2795 2824 
2766 2643 2521 2402 2272 2096 1931 1823 1737 1616 1480 1351 1217 1091 1001 928 
875 842 837
0 0 0 0 0 0 0 0 0 0 0 0 0 0 0 0 0 0 0 0 0 0 0 0 0 0 0 0 0 0 0 0 0 0 0 0 8 145 
352 581 770 925 1161 1405 1615 1810 1989 2157 2211 2247 2352 2468 2500 2462 2393 
2344 2342 2340 2271 2148 2046 1953 1825 1642 1473 1331 1199 1082 1002 941 900 
867 837
0 0 0 0 0 0 0 0 0 0 0 0 0 0 0 0 0 0 0 0 0 0 0 0 0 0 0 0 0 0 0 0 0 0 0 0 9 147 
321 542 685 862 1026 1237 1395 1621 1888 2097 2256 2349 2408 2436 2441 2404 2352 
2309 2277 2262 2219 2177 2113 2007 1848 1675 1499 1326 1182 1081 1004 934 882 
869 837
0 0 0 0 0 0 0 0 0 0 0 0 0 0 0 0 0 0 0 0 0 0 0 0 0 0 0 0 0 0 0 0 0 0 0 0 12 171 
358 604 776 1003 1161 1335 1558 1805 2065 2289 2489 2608 2584 2506 2450 2442 
2423 2378 2303 2225 2227 2225 2159 2019 1854 1686 1503 1315 1170 1077 999 930 
875 841 837
0 0 0 0 0 0 0 0 0 0 0 0 0 0 0 0 0 0 0 0 0 0 0 0 0 0 0 0 0 0 0 0 0 0 0 0 16 166 
388 616 875 1066 1302 1570 1891 2190 2419 2601 2716 2799 2811 2742 2645 2633 
2641 2610 2512 2395 2295 2244 2154 2011 1834 1653 1490 1320 1177 1074 998 930 
877 838 837
0 0 0 0 0 0 0 0 0 0 0 0 0 0 0 0 0 0 0 0 0 0 0 0 0 0 0 0 0 0 0 0 0 0 0 0 10 119 
345 580 767 1001 1163 1357 1574 1816 2090 2301 2484 2607 2614 2548 2487 2459 
2426 2388 2318 2235 2235 2227 2161 2017 1851 1679 1493 1305 1164 1072 997 930 
877 840 837
0 0 0 0 0 0 0 0 0 0 0 0 0 0 0 0 0 0 0 0 0 0 0 0 0 0 0 0 0 0 0 0 0 0 0 0 7 94 295 
523 689 881 1064 1308 1487 1707 1952 2142 2265 2358 2422 2481 2478 2434 2377 
2337 2301 2289 2242 2189 2117 2007 1840 1657 1477 1309 1173 1072 996 927 874 840 
837
0 0 0 0 0 0 0 0 0 0 0 0 0 0 0 0 0 0 0 0 0 0 0 0 0 0 0 0 0 0 0 0 0 0 0 0 6 96 304 
540 752 920 1185 1455 1703 1885 2027 2177 2247 2282 2389 2502 2542 2504 2438 
2387 2383 2376 2301 2173 2063 1954 1815 1628 1461 1322 1189 1074 998 929 874 839 
837
0 0 0 0 0 0 0 0 0 0 0 0 0 0 0 0 0 0 0 0 0 0 0 0 0 0 0 0 0 0 0 0 0 0 0 0 8 120 
367 593 842 1127 1504 1812 1973 1977 2042 2174 2299 2385 2464 2645 2795 2824 
2766 2643 2521 2402 2272 2096 1931 1823 1737 1616 1480 1351 1217 1091 1001 928 
875 842 837

