IESNA:LM-63-1995
[TEST]     20052
[MANUFAC]COOPER LIGHTING - SHAPER                                 
[LUMCAT]608-38-T5/2/21                                                                  
[LUMINAIRE]WITH WHITE INTERIOR AND WHITE PLASTIC LENS                                      
[LAMP]TWO SYLVANIA 21 WATT T5 LAMPS                                                   
[LAMPCAT]FP21/835/HO. LUMEN RATING = 1890 LMS.                                           
[OTHER]ONE UNIVERSAL B228PUNV-C BALLAST OPERATING AT 120 VAC AND 48 WATTS              
TILT=NONE
2
      1890
1
73
17
1
1
  0.35
  3.19
  0.62
1
1
   48.0000
0 2.5 5 7.5 10 12.5 15 17.5 20 22.5 25 27.5 30 32.5 35 37.5
40 42.5 45 47.5 50 52.5 55 57.5 60 62.5 65 67.5 70 72.5 75
77.5 80 82.5 85 87.5 90 92.5 95 97.5 100 102.5 105 107.5 110
112.5 115 117.5 120 122.5 125 127.5 130 132.5 135 137.5 140
142.5 145 147.5 150 152.5 155 157.5 160 162.5 165 167.5 170
172.5 175 177.5 180
0 22.5 45 67.5 90 112.5 135 157.5 180 202.5 225 247.5
270 292.5 315 337.5 360
     217.2      234.9      246.1      258.9      272.3      285.2      297.9      310.8      323.3      335.7
     347.7      359.2      369.9      380.1      390.4      399.7      408.5      416.7      424.1      431.0
     437.1      442.1      446.3      449.8      452.8      454.4      454.4      454.4      453.9      451.8
     448.7      445.1      440.4      434.4      428.3      421.0      413.9      406.4      397.0      386.9
     376.1      364.4      352.8      342.9      340.9      341.7      347.0      354.9      362.6      369.6
     377.8      411.7      455.9      500.2      537.7      546.8      547.3      552.5      557.0      565.2
     639.8      712.1      723.5      709.4      702.6      690.0      641.0      573.9      502.1      440.2
     391.7      373.0      392.0
     217.2      233.7      243.6      255.4      267.6      279.8      291.2      302.9      313.8      324.4
     334.8      344.3      353.1      361.5      369.7      377.2      384.2      390.4      396.2      401.4
     405.8      409.6      412.3      414.5      416.3      416.8      416.3      415.1      413.6      410.8
     407.2      403.2      398.1      392.0      385.7      378.6      371.6      364.3      355.3      345.8
     335.7      325.2      314.3      311.1      312.0      317.1      326.0      335.7      344.0      352.6
     384.3      427.0      471.5      509.9      522.7      525.9      532.6      539.1      543.7      608.5
     681.4      717.3      704.1      698.1      691.9      668.8      613.8      550.4      486.5      430.9
     388.2      372.2      392.0
     217.2      228.1      235.2      242.1      250.1      258.1      265.6      272.8      279.7      286.0
     291.9      297.0      301.6      305.6      309.5      312.7      315.4      317.4      318.9      319.9
     320.5      320.8      320.4      319.5      318.2      316.3      313.5      310.2      306.6      302.2
     297.3      292.2      286.5      280.1      273.6      266.8      260.1      253.5      245.9      238.0
     229.9      225.4      228.9      238.1      251.3      263.7      275.2      301.1      341.1      383.7
     422.1      439.4      448.3      461.2      474.4      484.8      538.8      606.2      660.2      666.2
     664.1      666.7      667.2      658.6      625.8      582.4      534.3      488.1      446.2      409.7
     381.3      372.2      392.0
     217.2      219.4      223.2      226.1      228.2      229.7      230.7      231.9      232.9      233.7
     233.8      233.4      232.4      231.0      229.3      227.0      224.5      221.4      217.9      214.0
     209.7      205.1      200.2      195.1      189.8      184.3      178.4      172.6      166.4      160.3
     153.9      147.6      141.1      134.5      128.2      122.0      116.0      110.7      105.4      108.4
     123.2      138.7      160.6      196.2      232.3      254.0      270.1      290.2      311.2      357.5
     416.4      468.4      495.1      509.5      525.2      541.3      555.0      563.7      562.2      552.5
     539.2      522.6      503.3      483.2      464.5      446.4      428.3      411.5      396.5      383.1
     373.7      372.5      392.0
     217.2      204.5      203.7      202.6      200.7      198.6      195.8      192.7      189.0      184.9
     180.4      175.4      170.0      164.0      157.8      151.4      144.8      137.7      130.5      123.0
     115.4      107.6       99.5       91.5       83.4       75.2       67.0       58.7       50.6       42.6
      34.7       27.0       19.7       12.4        7.6        4.0        0.0        2.3        6.7       13.2
      25.3       38.5       54.0       70.1       86.3      102.3      118.3      134.2      149.9      165.2
     180.3      195.1      209.4      223.3      236.9      249.8      262.2      273.9      285.0      295.4
     304.9      313.8      321.9      329.2      335.7      341.6      346.8      351.2      354.8      357.5
     359.5      360.5      392.0
     217.2      206.8      200.1      193.9      187.5      180.8      177.5      195.6      226.0      260.4
     291.3      313.4      320.5      317.6      309.3      292.1      269.2      246.5      233.1      225.9
     218.7      208.5      196.4      180.1      158.8      135.2      112.2       90.6       71.4       54.6
      41.3       36.5       36.1       35.3       34.0       32.0       32.1       34.7       38.7       42.1
      43.9       47.6       52.1       57.9       71.2       90.0      111.6      135.8      160.8      185.9
     210.1      229.5      242.9      255.3      266.8      278.5      294.1      326.4      365.3      407.2
     443.1      470.0      491.3      501.4      495.6      484.6      472.0      458.4      444.0      429.1
     413.4      396.9      392.0
     217.2      206.9      195.9      185.2      187.6      243.8      309.5      351.9      360.3      354.6
     328.7      303.3      300.2      302.4      297.0      289.9      279.6      258.2      232.5      205.9
     180.0      155.5      132.4      111.2       92.0       75.6       67.0       66.8       66.7       66.3
      65.6       64.6       63.2       61.0       61.4       64.2       63.5       65.3       69.4       73.0
      76.2       78.8       80.1       82.6       85.6       89.2       93.1       97.3      104.9      122.2
     143.5      166.2      191.0      217.4      244.2      271.2      296.9      319.6      334.6      341.9
     348.8      354.3      360.2      389.6      439.3      492.1      527.3      545.7      528.2      495.9
     462.7      429.4      392.0
     217.2      207.6      193.6      182.5      240.4      326.1      366.4      371.5      345.6      318.1
     327.2      327.4      323.4      317.2      297.0      269.8      241.8      213.8      186.7      161.4
     137.7      115.7       96.4       85.0       82.4       82.7       82.8       82.6       82.1       81.3
      80.4       78.8       76.8       77.6       81.0       83.2       83.1       85.5       89.1       92.3
      95.2       97.6       99.4      100.2      101.8      103.7      106.2      109.1      112.0      115.1
     118.7      130.1      150.0      173.3      198.4      224.7      253.1      281.9      310.3      336.9
     359.9      370.6      374.4      377.8      380.8      401.2      459.1      519.6      551.4      542.4
     498.1      452.6      392.0
     217.2      207.5      193.1      186.3      265.9      351.3      375.0      367.4      334.8      326.1
     336.2      333.8      329.5      313.5      286.1      255.9      227.6      199.8      173.4      148.6
     125.5      104.9       89.8       87.8       88.1       88.3       88.2       87.9       87.2       86.2
      85.0       83.4       81.3       84.1       87.4       89.7       90.0       92.5       96.0       99.1
     101.7      103.9      105.8      106.7      107.5      109.1      111.0      113.3      115.8      118.6
     121.7      125.4      139.0      160.5      184.6      210.6      238.2      267.8      297.0      325.9
     353.1      374.6      381.7      384.6      387.0      389.6      432.5      499.8      546.7      558.0
     511.7      461.6      392.0
     217.2      207.6      193.6      182.5      240.4      326.1      366.4      371.5      345.6      318.1
     327.2      327.4      323.4      317.2      297.0      269.8      241.8      213.8      186.7      161.4
     137.7      115.7       96.4       85.0       82.4       82.7       82.8       82.6       82.1       81.3
      80.4       78.8       76.8       77.6       81.0       83.2       83.1       85.5       89.1       92.3
      95.2       97.6       99.4      100.2      101.8      103.7      106.2      109.1      112.0      115.1
     118.7      130.1      150.0      173.3      198.4      224.7      253.1      281.9      310.3      336.9
     359.9      370.6      374.4      377.8      380.8      401.2      459.1      519.6      551.4      542.4
     498.1      452.6      392.0
     217.2      206.9      195.9      185.2      187.6      243.8      309.5      351.9      360.3      354.6
     328.7      303.3      300.2      302.4      297.0      289.9      279.6      258.2      232.5      205.9
     180.0      155.5      132.4      111.2       92.0       75.6       67.0       66.8       66.7       66.3
      65.6       64.6       63.2       61.0       61.4       64.2       63.5       65.3       69.4       73.0
      76.2       78.8       80.1       82.6       85.6       89.2       93.1       97.3      104.9      122.2
     143.5      166.2      191.0      217.4      244.2      271.2      296.9      319.6      334.6      341.9
     348.8      354.3      360.2      389.6      439.3      492.1      527.3      545.7      528.2      495.9
     462.7      429.4      392.0
     217.2      206.8      200.1      193.9      187.5      180.8      177.5      195.6      226.0      260.4
     291.3      313.4      320.5      317.6      309.3      292.1      269.2      246.5      233.1      225.9
     218.7      208.5      196.4      180.1      158.8      135.2      112.2       90.6       71.4       54.6
      41.3       36.5       36.1       35.3       34.0       32.0       32.1       34.7       38.7       42.1
      43.9       47.6       52.1       57.9       71.2       90.0      111.6      135.8      160.8      185.9
     210.1      229.5      242.9      255.3      266.8      278.5      294.1      326.4      365.3      407.2
     443.1      470.0      491.3      501.4      495.6      484.6      472.0      458.4      444.0      429.1
     413.4      396.9      392.0
     217.2      204.5      203.7      202.6      200.7      198.6      195.8      192.7      189.0      184.9
     180.4      175.4      170.0      164.0      157.8      151.4      144.8      137.7      130.5      123.0
     115.4      107.6       99.5       91.5       83.4       75.2       67.0       58.7       50.6       42.6
      34.7       27.0       19.7       12.4        7.6        4.0        0.0        2.3        6.7       13.2
      25.3       38.5       54.0       70.1       86.3      102.3      118.3      134.2      149.9      165.2
     180.3      195.1      209.4      223.3      236.9      249.8      262.2      273.9      285.0      295.4
     304.9      313.8      321.9      329.2      335.7      341.6      346.8      351.2      354.8      357.5
     359.5      360.5      392.0
     217.2      219.4      223.2      226.1      228.2      229.7      230.7      231.9      232.9      233.7
     233.8      233.4      232.4      231.0      229.3      227.0      224.5      221.4      217.9      214.0
     209.7      205.1      200.2      195.1      189.8      184.3      178.4      172.6      166.4      160.3
     153.9      147.6      141.1      134.5      128.2      122.0      116.0      110.7      105.4      108.4
     123.2      138.7      160.6      196.2      232.3      254.0      270.1      290.2      311.2      357.5
     416.4      468.4      495.1      509.5      525.2      541.3      555.0      563.7      562.2      552.5
     539.2      522.6      503.3      483.2      464.5      446.4      428.3      411.5      396.5      383.1
     373.7      372.5      392.0
     217.2      228.1      235.2      242.1      250.1      258.1      265.6      272.8      279.7      286.0
     291.9      297.0      301.6      305.6      309.5      312.7      315.4      317.4      318.9      319.9
     320.5      320.8      320.4      319.5      318.2      316.3      313.5      310.2      306.6      302.2
     297.3      292.2      286.5      280.1      273.6      266.8      260.1      253.5      245.9      238.0
     229.9      225.4      228.9      238.1      251.3      263.7      275.2      301.1      341.1      383.7
     422.1      439.4      448.3      461.2      474.4      484.8      538.8      606.2      660.2      666.2
     664.1      666.7      667.2      658.6      625.8      582.4      534.3      488.1      446.2      409.7
     381.3      372.2      392.0
     217.2      233.7      243.6      255.4      267.6      279.8      291.2      302.9      313.8      324.4
     334.8      344.3      353.1      361.5      369.7      377.2      384.2      390.4      396.2      401.4
     405.8      409.6      412.3      414.5      416.3      416.8      416.3      415.1      413.6      410.8
     407.2      403.2      398.1      392.0      385.7      378.6      371.6      364.3      355.3      345.8
     335.7      325.2      314.3      311.1      312.0      317.1      326.0      335.7      344.0      352.6
     384.3      427.0      471.5      509.9      522.7      525.9      532.6      539.1      543.7      608.5
     681.4      717.3      704.1      698.1      691.9      668.8      613.8      550.4      486.5      430.9
     388.2      372.2      392.0
     217.2      234.9      246.1      258.9      272.3      285.2      297.9      310.8      323.3      335.7
     347.7      359.2      369.9      380.1      390.4      399.7      408.5      416.7      424.1      431.0
     437.1      442.1      446.3      449.8      452.8      454.4      454.4      454.4      453.9      451.8
     448.7      445.1      440.4      434.4      428.3      421.0      413.9      406.4      397.0      386.9
     376.1      364.4      352.8      342.9      340.9      341.7      347.0      354.9      362.6      369.6
     377.8      411.7      455.9      500.2      537.7      546.8      547.3      552.5      557.0      565.2
     639.8      712.1      723.5      709.4      702.6      690.0      641.0      573.9      502.1      440.2
     391.7      373.0      392.0
