IESNA:LM-63-1995
[TEST]     19151
[MANUFAC]COOPER LIGHTING - SHAPER                                
[LUMCAT]608-38-F2/25                                                                    
[LUMINAIRE]INTERIOR WALL MOUNT LUMINAIRE WITH WHITE INTERIOR AND WHITE PLASTIC LENS                                      
[LAMP]TWO 25 WATT T8 LAMPS                                                            
[LAMPCAT]FO25/830/XP/ECO. LUMEN RATING = 2175 LMS.                                       
[OTHER]ONE UNIVERSAL B228PUNV-C BALLAST OPERATING AT 120 VAC AND 41 WATTS              
TILT=NONE
2
      2175
1
73
17
1
1
  0.35
  3.19
  0.62
1
1
   41.0000
0 2.5 5 7.5 10 12.5 15 17.5 20 22.5 25 27.5 30 32.5 35 37.5
40 42.5 45 47.5 50 52.5 55 57.5 60 62.5 65 67.5 70 72.5 75
77.5 80 82.5 85 87.5 90 92.5 95 97.5 100 102.5 105 107.5 110
112.5 115 117.5 120 122.5 125 127.5 130 132.5 135 137.5 140
142.5 145 147.5 150 152.5 155 157.5 160 162.5 165 167.5 170
172.5 175 177.5 180
0 22.5 45 67.5 90 112.5 135 157.5 180 202.5 225 247.5
270 292.5 315 337.5 360
     258.5      243.8      242.9      241.7      239.6      237.0      234.0      230.3      226.2      221.7
     216.5      210.6      204.8      198.3      191.4      184.1      176.4      168.3      160.0      151.4
     142.6      133.6      124.5      115.1      105.9       96.3       86.8       77.1       67.5       58.1
      48.7       39.5       30.2       21.3       12.4        4.3        0.6        2.9        9.3       20.2
      35.4       55.1       75.8       96.6      117.3      137.7      158.0      178.0      197.7      217.0
     235.7      253.9      271.7      289.2      305.8      322.0      337.4      352.0      366.0      379.2
     391.4      402.8      413.1      422.6      431.1      438.8      445.7      451.4      456.1      459.8
     462.5      463.8      495.2
     258.5      261.7      265.4      268.1      270.3      270.7      272.0      273.4      274.5      275.5
     275.5      275.0      273.8      272.3      270.2      267.6      264.3      260.9      256.6      252.0
     247.2      241.6      236.1      230.3      223.9      217.6      210.9      204.1      197.0      190.1
     182.8      175.4      168.0      160.3      152.9      145.7      135.7      125.4      120.5      129.1
     149.2      175.7      208.0      240.6      270.5      299.5      337.3      386.0      435.2      481.9
     511.1      523.4      530.5      536.0      539.7      542.2      543.7      543.8      541.4      536.3
     529.1      520.8      510.7      499.7      487.3      473.9      463.7      455.7      451.5      454.7
     466.6      480.7      495.2
     258.5      270.5      277.5      284.7      294.0      302.7      311.7      319.8      327.5      334.6
     341.3      347.2      352.7      357.5      361.8      365.5      368.7      371.2      372.8      374.0
     374.9      375.3      374.8      373.7      372.0      369.9      366.6      363.0      358.3      353.1
     347.4      341.5      334.5      327.1      319.3      311.2      297.2      282.4      272.3      262.5
     256.0      259.1      269.0      286.7      311.1      340.2      373.5      406.7      439.8      468.7
     490.6      515.5      547.0      596.1      648.6      696.0      740.3      754.3      738.5      719.8
     700.1      679.8      658.0      635.9      610.2      580.4      548.2      516.7      482.4      460.7
     454.8      477.1      495.2
     258.5      276.6      286.2      300.3      314.0      327.7      340.4      353.7      366.3      378.6
     390.5      401.4      411.7      422.1      431.7      440.3      448.6      456.0      462.8      468.9
     473.8      478.0      481.1      483.6      485.4      485.7      485.4      484.0      481.3      477.9
     473.7      468.7      462.5      455.5      447.9      439.4      422.9      405.4      394.3      382.3
     369.9      358.5      356.7      359.5      367.5      381.5      402.5      428.8      459.2      490.6
     522.2      551.5      577.2      592.5      612.3      638.1      687.7      739.7      786.3      826.4
     820.5      788.8      753.9      719.2      684.5      649.7      608.1      564.9      519.4      475.7
     452.6      475.4      495.2
     258.5      278.2      290.6      305.7      321.8      336.6      351.3      366.3      381.0      395.0
     408.7      421.4      434.4      446.1      457.9      468.2      478.8      487.8      496.5      504.3
     511.1      516.5      521.0      524.8      528.0      529.7      530.2      529.6      528.0      525.0
     521.4      517.3      510.9      504.4      496.8      488.3      470.9      452.7      441.0      428.3
     415.3      401.4      394.5      393.6      397.0      405.5      420.4      441.8      468.8      498.5
     529.3      559.7      588.0      611.7      623.8      642.9      668.1      719.5      771.6      817.1
     853.7      829.0      790.7      751.6      712.5      673.2      630.6      583.2      534.7      483.1
     453.9      474.2      495.2
     258.5      276.6      286.2      300.3      314.0      327.7      340.4      353.7      366.3      378.6
     390.5      401.4      411.7      422.1      431.7      440.3      448.6      456.0      462.8      468.9
     473.8      478.0      481.1      483.6      485.4      485.7      485.4      484.0      481.3      477.9
     473.7      468.7      462.5      455.5      447.9      439.4      422.9      405.4      394.3      382.3
     369.9      358.5      356.7      359.5      367.5      381.5      402.5      428.8      459.2      490.6
     522.2      551.5      577.2      592.5      612.3      638.1      687.7      739.7      786.3      826.4
     820.5      788.8      753.9      719.2      684.5      649.7      608.1      564.9      519.4      475.7
     452.6      475.4      495.2
     258.5      270.5      277.5      284.7      294.0      302.7      311.7      319.8      327.5      334.6
     341.3      347.2      352.7      357.5      361.8      365.5      368.7      371.2      372.8      374.0
     374.9      375.3      374.8      373.7      372.0      369.9      366.6      363.0      358.3      353.1
     347.4      341.5      334.5      327.1      319.3      311.2      297.2      282.4      272.3      262.5
     256.0      259.1      269.0      286.7      311.1      340.2      373.5      406.7      439.8      468.7
     490.6      515.5      547.0      596.1      648.6      696.0      740.3      754.3      738.5      719.8
     700.1      679.8      658.0      635.9      610.2      580.4      548.2      516.7      482.4      460.7
     454.8      477.1      495.2
     258.5      261.7      265.4      268.1      270.3      270.7      272.0      273.4      274.5      275.5
     275.5      275.0      273.8      272.3      270.2      267.6      264.3      260.9      256.6      252.0
     247.2      241.6      236.1      230.3      223.9      217.6      210.9      204.1      197.0      190.1
     182.8      175.4      168.0      160.3      152.9      145.7      135.7      125.4      120.5      129.1
     149.2      175.7      208.0      240.6      270.5      299.5      337.3      386.0      435.2      481.9
     511.1      523.4      530.5      536.0      539.7      542.2      543.7      543.8      541.4      536.3
     529.1      520.8      510.7      499.7      487.3      473.9      463.7      455.7      451.5      454.7
     466.6      480.7      495.2
     258.5      243.8      242.9      241.7      239.6      237.0      234.0      230.3      226.2      221.7
     216.5      210.6      204.8      198.3      191.4      184.1      176.4      168.3      160.0      151.4
     142.6      133.6      124.5      115.1      105.9       96.3       86.8       77.1       67.5       58.1
      48.7       39.5       30.2       21.3       12.4        4.3        0.6        2.9        9.3       20.2
      35.4       55.1       75.8       96.6      117.3      137.7      158.0      178.0      197.7      217.0
     235.7      253.9      271.7      289.2      305.8      322.0      337.4      352.0      366.0      379.2
     391.4      402.8      413.1      422.6      431.1      438.8      445.7      451.4      456.1      459.8
     462.5      463.8      495.2
     258.5      246.3      239.3      247.2      265.2      286.1      302.7      305.4      305.2      303.5
     300.9      297.7      293.5      288.9      283.8      278.8      272.9      266.0      258.3      249.2
     236.3      218.4      196.8      175.3      154.3      134.7      116.6      100.3       85.8       73.0
      61.9       52.9       47.7       46.0       44.4       42.8       40.4       41.8       47.1       51.6
      54.6       59.5       65.1       72.5       84.7       99.0      114.4      131.1      149.6      168.5
     187.5      206.6      226.5      245.6      265.1      284.7      303.8      322.5      340.8      359.1
     376.0      392.5      407.3      422.8      438.3      452.8      466.2      478.7      489.6      499.2
     506.2      505.1      495.2
     258.5      245.9      246.1      281.7      311.1      317.2      320.9      323.8      325.7      327.3
     329.2      329.2      327.9      323.4      307.8      286.6      263.8      242.0      221.4      201.3
     182.7      166.0      150.2      135.8      122.6      110.2       99.4       89.7       83.5       82.5
      81.6       80.5       78.8       76.6       76.6       80.7       80.1       80.1       84.7       88.5
      91.7       94.2       95.3       97.7      101.5      105.5      109.6      114.2      124.8      137.6
     151.7      166.6      182.2      198.6      216.7      235.6      254.5      273.4      292.4      311.4
     330.4      348.4      366.9      385.2      403.0      420.1      435.8      451.0      467.0      482.0
     495.4      506.9      495.2
     258.5      246.3      254.3      306.0      318.9      326.1      331.2      336.7      343.4      347.6
     349.7      343.4      322.9      299.5      276.3      254.5      233.8      214.6      196.6      180.4
     165.2      151.1      137.9      125.9      115.0      105.5      101.6      101.4      100.9      100.1
      98.6       97.1       95.1       95.5      100.6      105.6      104.0      102.8      107.0      110.3
     113.2      115.5      117.2      117.6      118.3      120.6      123.2      126.3      129.7      133.2
     139.0      151.4      164.8      179.2      194.6      210.8      227.1      245.9      265.3      284.9
     304.9      323.8      343.4      362.6      382.1      400.8      419.6      437.1      453.0      470.8
     487.4      502.2      495.2
     258.5      246.6      257.7      311.2      321.2      328.6      335.3      342.1      349.5      353.8
     354.5      336.7      312.7      289.3      266.8      245.5      225.5      207.4      190.9      175.5
     160.7      147.1      135.1      123.5      113.3      107.5      107.1      107.2      106.5      105.7
     104.1      102.5      100.4      103.7      109.0      113.9      112.1      110.8      115.0      118.1
     121.2      123.1      124.6      125.4      125.3      126.5      128.6      131.2      134.2      137.0
     140.1      147.5      159.9      173.6      188.7      204.1      220.3      237.5      256.5      276.0
     295.9      315.8      335.4      355.6      374.7      394.5      414.0      432.5      449.4      467.6
     484.8      501.1      495.2
     258.5      246.3      254.3      306.0      318.9      326.1      331.2      336.7      343.4      347.6
     349.7      343.4      322.9      299.5      276.3      254.5      233.8      214.6      196.6      180.4
     165.2      151.1      137.9      125.9      115.0      105.5      101.6      101.4      100.9      100.1
      98.6       97.1       95.1       95.5      100.6      105.6      104.0      102.8      107.0      110.3
     113.2      115.5      117.2      117.6      118.3      120.6      123.2      126.3      129.7      133.2
     139.0      151.4      164.8      179.2      194.6      210.8      227.1      245.9      265.3      284.9
     304.9      323.8      343.4      362.6      382.1      400.8      419.6      437.1      453.0      470.8
     487.4      502.2      495.2
     258.5      245.9      246.1      281.7      311.1      317.2      320.9      323.8      325.7      327.3
     329.2      329.2      327.9      323.4      307.8      286.6      263.8      242.0      221.4      201.3
     182.7      166.0      150.2      135.8      122.6      110.2       99.4       89.7       83.5       82.5
      81.6       80.5       78.8       76.6       76.6       80.7       80.1       80.1       84.7       88.5
      91.7       94.2       95.3       97.7      101.5      105.5      109.6      114.2      124.8      137.6
     151.7      166.6      182.2      198.6      216.7      235.6      254.5      273.4      292.4      311.4
     330.4      348.4      366.9      385.2      403.0      420.1      435.8      451.0      467.0      482.0
     495.4      506.9      495.2
     258.5      246.3      239.3      247.2      265.2      286.1      302.7      305.4      305.2      303.5
     300.9      297.7      293.5      288.9      283.8      278.8      272.9      266.0      258.3      249.2
     236.3      218.4      196.8      175.3      154.3      134.7      116.6      100.3       85.8       73.0
      61.9       52.9       47.7       46.0       44.4       42.8       40.4       41.8       47.1       51.6
      54.6       59.5       65.1       72.5       84.7       99.0      114.4      131.1      149.6      168.5
     187.5      206.6      226.5      245.6      265.1      284.7      303.8      322.5      340.8      359.1
     376.0      392.5      407.3      422.8      438.3      452.8      466.2      478.7      489.6      499.2
     506.2      505.1      495.2
     258.5      243.8      242.9      241.7      239.6      237.0      234.0      230.3      226.2      221.7
     216.5      210.6      204.8      198.3      191.4      184.1      176.4      168.3      160.0      151.4
     142.6      133.6      124.5      115.1      105.9       96.3       86.8       77.1       67.5       58.1
      48.7       39.5       30.2       21.3       12.4        4.3        0.6        2.9        9.3       20.2
      35.4       55.1       75.8       96.6      117.3      137.7      158.0      178.0      197.7      217.0
     235.7      253.9      271.7      289.2      305.8      322.0      337.4      352.0      366.0      379.2
     391.4      402.8      413.1      422.6      431.1      438.8      445.7      451.4      456.1      459.8
     462.5      463.8      495.2
