IESNA:LM-63-1995
[TEST]     19163
[MANUFAC]COOPER LIGHTING - SHAPER                                
[LUMCAT]607-CF2/13                                                                      
[LUMINAIRE]INTERIOR WALL MOUNT LUMINAIRE WITH WHITE INTERIOR AND WHITE PLASTIC LENS                                      
[LAMP]TWO SYLVANIA 13 WATT CPFL LAMPS                                                 
[LAMPCAT]CF13DS/E/830. LUMEN RATING = 1600 LMS.                                          
[OTHER]ONE UNIVERSAL CT213UNVSE BALLAST OPERATING AT 120 VAC AND 27 WATTS              
TILT=NONE
1
      1600
1
73
17
1
1
  0.29
  1.27
  0.42
1
1
   27.0000
0 2.5 5 7.5 10 12.5 15 17.5 20 22.5 25 27.5 30 32.5 35 37.5
40 42.5 45 47.5 50 52.5 55 57.5 60 62.5 65 67.5 70 72.5 75
77.5 80 82.5 85 87.5 90 92.5 95 97.5 100 102.5 105 107.5 110
112.5 115 117.5 120 122.5 125 127.5 130 132.5 135 137.5 140
142.5 145 147.5 150 152.5 155 157.5 160 162.5 165 167.5 170
172.5 175 177.5 180
0 22.5 45 67.5 90 112.5 135 157.5 180 202.5 225 247.5
270 292.5 315 337.5 360
      77.7       76.6       76.5       76.7       76.2       75.5       75.2       74.3       72.8       71.9
      71.3       69.5       68.0       66.3       64.4       63.1       60.9       58.8       56.3       53.8
      51.8       49.4       46.2       44.0       40.7       38.1       35.1       32.5       29.7       26.2
      23.3       20.5       18.0       14.7       13.5       12.2       12.2       15.2       15.7       17.1
      18.7       22.5       27.9       34.4       40.7       46.3       53.0       60.6       68.5       77.0
      83.7       91.2       97.0      103.4      108.7      113.9      118.8      123.1      127.8      131.0
     134.6      137.4      140.0      142.1      144.0      145.2      146.4      147.5      147.6      147.8
     148.2      148.5      149.3
      77.7       78.1       78.7       79.2       80.1       80.7       82.1       83.1       83.3       84.4
      85.1       86.2       86.9       87.6       87.8       87.1       87.1       87.8       87.1       86.0
      86.0       84.9       83.8       82.7       80.7       78.7       77.6       75.6       73.6       70.5
      68.1       66.5       64.1       61.6       60.3       59.2       58.7       47.9       50.4       52.6
      55.0       57.0       59.8       64.3       76.9       97.8      119.3      137.4      145.4      152.3
     157.1      163.1      167.3      170.6      173.7      175.7      178.4      179.2      179.5      177.7
     176.1      173.7      171.3      169.1      167.3      164.6      161.1      159.4      156.6      155.4
     153.4      151.5      149.3
      77.7       77.8       80.1       82.1       84.2       87.6       90.7       93.8       97.3      100.2
     103.3      105.7      108.2      111.5      113.7      115.9      117.7      118.3      120.5      121.4
     122.2      122.8      122.3      122.8      122.8      122.2      121.2      120.3      119.0      117.4
     115.3      114.2      112.4      109.7      109.0      108.4      108.2      100.2       99.7      101.7
     105.5      108.2      110.4      113.7      117.4      121.4      127.4      131.9      138.5      147.8
     160.9      189.0      220.2      250.8      278.0      285.1      278.5      270.5      263.4      255.2
     246.6      236.8      228.0      220.0      213.1      202.5      191.0      180.4      171.7      163.3
     157.1      152.9      149.3
      77.7       78.7       80.5       83.3       87.3       91.1       96.7      101.3      105.3      110.4
     114.6      118.8      122.2      126.5      129.9      132.3      136.0      138.5      140.3      143.1
     144.3      145.8      147.8      148.6      149.6      150.0      149.4      149.1      148.6      148.6
     147.6      146.3      145.1      143.6      142.0      142.0      141.8      136.5      137.2      138.3
     139.6      141.6      144.9      147.1      148.3      150.3      154.3      159.8      165.1      169.5
     173.2      176.0      181.9      190.7      210.7      243.4      277.1      307.7      324.4      313.9
     298.9      284.5      270.3      255.7      241.1      227.8      214.5      199.0      184.6      171.1
     160.6      152.6      149.3
      77.7       76.3       78.9       82.1       85.6       91.3       95.9      101.1      106.4      111.3
     115.7      120.2      124.5      127.9      132.0      135.4      138.0      141.6      143.4      146.5
     148.5      150.0      152.3      153.5      154.5      155.4      155.5      155.4      155.4      155.4
     154.6      152.6      152.3      151.1      150.0      150.0      149.6      154.0      154.5      154.9
     156.0      157.8      160.6      162.0      163.5      165.1      166.6      170.1      174.4      179.2
     182.6      186.4      188.6      192.7      199.2      215.6      249.7      284.0      319.2      338.1
     327.5      309.2      292.9      275.8      258.8      240.8      226.7      210.1      192.1      176.6
     163.5      154.5      149.3
      77.7       78.7       80.5       83.3       87.3       91.1       96.7      101.3      105.3      110.4
     114.6      118.8      122.2      126.5      129.9      132.3      136.0      138.5      140.3      143.1
     144.3      145.8      147.8      148.6      149.6      150.0      149.4      149.1      148.6      148.6
     147.6      146.3      145.1      143.6      142.0      142.0      141.8      136.5      137.2      138.3
     139.6      141.6      144.9      147.1      148.3      150.3      154.3      159.8      165.1      169.5
     173.2      176.0      181.9      190.7      210.7      243.4      277.1      307.7      324.4      313.9
     298.9      284.5      270.3      255.7      241.1      227.8      214.5      199.0      184.6      171.1
     160.6      152.6      149.3
      77.7       77.8       80.1       82.1       84.2       87.6       90.7       93.8       97.3      100.2
     103.3      105.7      108.2      111.5      113.7      115.9      117.7      118.3      120.5      121.4
     122.2      122.8      122.3      122.8      122.8      122.2      121.2      120.3      119.0      117.4
     115.3      114.2      112.4      109.7      109.0      108.4      108.2      100.2       99.7      101.7
     105.5      108.2      110.4      113.7      117.4      121.4      127.4      131.9      138.5      147.8
     160.9      189.0      220.2      250.8      278.0      285.1      278.5      270.5      263.4      255.2
     246.6      236.8      228.0      220.0      213.1      202.5      191.0      180.4      171.7      163.3
     157.1      152.9      149.3
      77.7       78.1       78.7       79.2       80.1       80.7       82.1       83.1       83.3       84.4
      85.1       86.2       86.9       87.6       87.8       87.1       87.1       87.8       87.1       86.0
      86.0       84.9       83.8       82.7       80.7       78.7       77.6       75.6       73.6       70.5
      68.1       66.5       64.1       61.6       60.3       59.2       58.7       47.9       50.4       52.6
      55.0       57.0       59.8       64.3       76.9       97.8      119.3      137.4      145.4      152.3
     157.1      163.1      167.3      170.6      173.7      175.7      178.4      179.2      179.5      177.7
     176.1      173.7      171.3      169.1      167.3      164.6      161.1      159.4      156.6      155.4
     153.4      151.5      149.3
      77.7       76.6       76.5       76.7       76.2       75.5       75.2       74.3       72.8       71.9
      71.3       69.5       68.0       66.3       64.4       63.1       60.9       58.8       56.3       53.8
      51.8       49.4       46.2       44.0       40.7       38.1       35.1       32.5       29.7       26.2
      23.3       20.5       18.0       14.7       13.5       12.2       12.2       15.2       15.7       17.1
      18.7       22.5       27.9       34.4       40.7       46.3       53.0       60.6       68.5       77.0
      83.7       91.2       97.0      103.4      108.7      113.9      118.8      123.1      127.8      131.0
     134.6      137.4      140.0      142.1      144.0      145.2      146.4      147.5      147.6      147.8
     148.2      148.5      149.3
      77.7       76.9       76.7       75.2       75.2       74.5       73.6       72.7       71.6       69.6
      69.2       67.4       65.8       63.5       61.2       59.8       57.9       54.8       53.0       50.8
      48.4       46.0       42.6       40.4       37.1       34.4       32.2       28.6       25.8       22.9
      20.2       17.8       14.9       12.9       10.7       10.5       10.0       13.1       15.4       17.6
      20.2       24.0       28.2       30.2       30.4       30.6       32.0       34.0       35.1       40.4
      51.9       68.3       85.6      101.1      114.4      127.9      134.9      138.9      142.5      144.5
     146.5      146.7      147.6      149.1      149.6      150.5      150.0      150.6      149.8      150.9
     150.6      150.0      149.3
      77.7       76.9       76.9       76.3       75.3       74.5       73.2       72.1       70.7       68.5
      67.4       64.7       62.7       61.5       59.5       56.7       54.8       52.1       49.7       47.5
      45.0       42.6       39.5       37.2       33.5       31.5       28.0       25.8       22.9       19.6
      17.1       14.0       12.0        9.4        8.0        6.9        6.5        9.6       12.3       14.5
      17.4       19.6       23.8       28.2       33.1       36.0       39.2       42.4       45.2       46.0
      47.5       46.8       48.4       49.7       51.0       51.9       53.0       63.0       84.9      109.3
     131.9      147.4      162.9      166.2      164.9      162.2      159.8      157.4      154.5      153.4
     150.6      150.3      149.3
      77.7       77.8       76.5       76.1       75.8       73.8       73.2       71.4       69.0       67.6
      65.2       62.7       60.3       58.7       56.6       53.5       51.0       49.0       46.6       44.0
      40.4       38.0       35.5       32.6       30.4       27.4       24.6       21.8       18.9       15.4
      12.9        9.8        7.4        5.9        3.6        3.4        2.8        5.6        7.8       10.0
      13.1       15.4       18.5       21.4       25.5       30.4       35.1       39.1       41.7       45.5
      47.9       50.4       51.2       52.3       52.3       52.6       54.3       55.7       55.9       56.6
      65.5       90.9      121.4      145.1      164.0      170.0      166.2      162.2      158.2      154.6
     150.5      148.3      149.3
      77.7       76.7       75.8       75.2       74.3       73.0       71.4       69.6       67.6       65.0
      63.5       60.7       58.7       56.1       53.7       51.2       48.8       46.4       43.7       40.9
      37.7       35.2       32.6       30.0       26.4       23.8       20.9       17.8       14.9       12.5
       9.6        7.4        4.8        2.9        1.4        0.5        0.5        2.8        4.9        7.4
       9.8       12.3       14.5       17.6       20.2       25.5       30.6       36.0       39.2       42.8
      45.7       48.8       50.8       51.9       53.0       53.0       53.0       55.2       56.3       57.0
      56.7       66.7       97.3      127.4      151.4      169.5      169.1      165.1      160.2      155.4
     151.5      148.5      149.3
      77.7       77.8       76.5       76.1       75.8       73.8       73.2       71.4       69.0       67.6
      65.2       62.7       60.3       58.7       56.6       53.5       51.0       49.0       46.6       44.0
      40.4       38.0       35.5       32.6       30.4       27.4       24.6       21.8       18.9       15.4
      12.9        9.8        7.4        5.9        3.6        3.4        2.8        5.6        7.8       10.0
      13.1       15.4       18.5       21.4       25.5       30.4       35.1       39.1       41.7       45.5
      47.9       50.4       51.2       52.3       52.3       52.6       54.3       55.7       55.9       56.6
      65.5       90.9      121.4      145.1      164.0      170.0      166.2      162.2      158.2      154.6
     150.5      148.3      149.3
      77.7       76.9       76.9       76.3       75.3       74.5       73.2       72.1       70.7       68.5
      67.4       64.7       62.7       61.5       59.5       56.7       54.8       52.1       49.7       47.5
      45.0       42.6       39.5       37.2       33.5       31.5       28.0       25.8       22.9       19.6
      17.1       14.0       12.0        9.4        8.0        6.9        6.5        9.6       12.3       14.5
      17.4       19.6       23.8       28.2       33.1       36.0       39.2       42.4       45.2       46.0
      47.5       46.8       48.4       49.7       51.0       51.9       53.0       63.0       84.9      109.3
     131.9      147.4      162.9      166.2      164.9      162.2      159.8      157.4      154.5      153.4
     150.6      150.3      149.3
      77.7       76.9       76.7       75.2       75.2       74.5       73.6       72.7       71.6       69.6
      69.2       67.4       65.8       63.5       61.2       59.8       57.9       54.8       53.0       50.8
      48.4       46.0       42.6       40.4       37.1       34.4       32.2       28.6       25.8       22.9
      20.2       17.8       14.9       12.9       10.7       10.5       10.0       13.1       15.4       17.6
      20.2       24.0       28.2       30.2       30.4       30.6       32.0       34.0       35.1       40.4
      51.9       68.3       85.6      101.1      114.4      127.9      134.9      138.9      142.5      144.5
     146.5      146.7      147.6      149.1      149.6      150.5      150.0      150.6      149.8      150.9
     150.6      150.0      149.3
      77.7       76.6       76.5       76.7       76.2       75.5       75.2       74.3       72.8       71.9
      71.3       69.5       68.0       66.3       64.4       63.1       60.9       58.8       56.3       53.8
      51.8       49.4       46.2       44.0       40.7       38.1       35.1       32.5       29.7       26.2
      23.3       20.5       18.0       14.7       13.5       12.2       12.2       15.2       15.7       17.1
      18.7       22.5       27.9       34.4       40.7       46.3       53.0       60.6       68.5       77.0
      83.7       91.2       97.0      103.4      108.7      113.9      118.8      123.1      127.8      131.0
     134.6      137.4      140.0      142.1      144.0      145.2      146.4      147.5      147.6      147.8
     148.2      148.5      149.3
