IESNA:LM-63-1995
[TEST]    19163A
[MANUFAC]COOPER LIGHTING - SHAPER                                
[LUMCAT]607-CF2/26                                                                      
[LUMINAIRE]INTERIOR WALL MOUNT LUMINAIRE WITH WHITE INTERIOR AND WHITE PLASTIC LENS                                      
[LAMP]TWO 26 WATT CPFL LAMPS. LUMEN RATING = 3600 LMS.                                
[OTHER]SIMULATED REPORT FROM TEST WITH 2 - 13 WATT LAMPS                               
TILT=NONE
1
      3600
1
73
17
1
1
  0.29
  1.27
  0.42
1
1
    0.0000
0 2.5 5 7.5 10 12.5 15 17.5 20 22.5 25 27.5 30 32.5 35 37.5
40 42.5 45 47.5 50 52.5 55 57.5 60 62.5 65 67.5 70 72.5 75
77.5 80 82.5 85 87.5 90 92.5 95 97.5 100 102.5 105 107.5 110
112.5 115 117.5 120 122.5 125 127.5 130 132.5 135 137.5 140
142.5 145 147.5 150 152.5 155 157.5 160 162.5 165 167.5 170
172.5 175 177.5 180
0 22.5 45 67.5 90 112.5 135 157.5 180 202.5 225 247.5
270 292.5 315 337.5 360
     174.2      171.8      171.5      172.0      170.7      169.2      168.5      166.4      163.2      161.2
     159.7      155.7      152.3      148.5      144.3      141.3      136.3      131.6      126.0      120.4
     115.9      110.4      103.4       98.5       91.0       85.2       78.4       72.6       66.1       58.4
      51.8       45.4       39.9       32.4       29.7       26.9       26.7       33.7       34.7       37.8
      41.4       49.9       62.0       76.8       91.0      103.5      118.7      135.8      153.5      172.7
     187.7      204.6      217.6      232.1      244.0      255.8      266.7      276.4      286.9      294.0
     302.3      308.5      314.4      319.0      323.4      326.0      328.7      331.2      331.4      331.9
     332.9      333.4      335.2
     174.2      175.0      176.5      177.5      179.5      180.9      184.0      186.5      186.9      189.3
     190.9      193.4      194.8      196.5      196.9      195.4      195.4      196.9      195.4      193.0
     193.0      190.3      187.9      185.4      180.9      176.5      174.0      169.5      165.0      158.1
     152.6      149.1      143.6      138.1      135.0      132.6      131.5      107.3      112.8      117.7
     123.2      127.7      134.0      144.0      172.4      219.3      267.7      308.5      326.5      342.0
     352.8      366.3      375.9      383.2      390.2      394.7      400.8      402.6      403.2      399.1
     395.7      390.2      384.9      379.8      375.9      369.8      361.8      357.9      351.8      348.9
     344.4      340.4      335.2
     174.2      174.4      179.5      184.0      188.9      196.5      203.4      210.3      218.3      224.8
     231.8      237.3      242.8      250.1      255.2      260.1      264.2      265.7      270.6      272.6
     274.2      275.7      274.6      275.7      275.7      274.2      272.2      270.1      267.1      263.6
     258.7      256.3      252.2      246.3      244.6      243.2      242.8      224.8      223.8      228.3
     236.7      242.8      247.7      255.2      263.6      272.6      286.1      296.1      311.0      332.0
     361.4      424.7      494.9      563.7      624.9      640.8      625.9      608.0      592.0      573.7
     554.3      532.2      512.4      494.5      479.0      455.1      429.2      405.3      385.7      366.9
     352.8      343.4      335.2
     174.2      176.5      180.5      186.9      195.8      204.4      216.9      227.3      236.3      247.7
     257.3      266.7      274.2      284.0      291.6      297.1      305.5      311.0      315.0      321.4
     324.0      327.5      332.0      333.8      335.9      336.9      335.5      334.8      333.8      333.8
     331.4      328.5      325.9      322.4      318.9      318.9      318.5      306.5      308.1      310.6
     313.4      317.9      325.5      330.4      333.0      337.5      346.5      358.9      370.8      380.8
     389.1      395.3      408.7      428.5      473.4      547.1      622.9      691.7      729.2      705.7
     671.9      639.4      607.6      574.7      541.8      511.8      482.0      447.1      414.7      384.2
     360.8      342.8      335.2
     174.2      170.9      176.9      184.0      192.0      204.8      215.2      226.9      238.7      249.7
     259.7      269.7      279.5      287.1      296.5      304.0      309.9      317.9      322.0      328.9
     333.4      336.9      342.0      344.9      346.9      348.9      349.3      348.9      348.9      348.9
     347.3      342.8      342.0      339.3      336.9      336.9      335.9      345.9      346.9      347.9
     350.4      354.4      360.8      363.8      367.3      370.8      374.2      382.2      391.8      402.6
     410.2      418.7      423.6      433.0      447.5      484.5      561.2      638.4      717.6      760.0
     736.1      695.1      658.4      620.0      581.6      541.2      509.4      472.0      431.6      396.7
     367.3      346.9      335.2
     174.2      176.5      180.5      186.9      195.8      204.4      216.9      227.3      236.3      247.7
     257.3      266.7      274.2      284.0      291.6      297.1      305.5      311.0      315.0      321.4
     324.0      327.5      332.0      333.8      335.9      336.9      335.5      334.8      333.8      333.8
     331.4      328.5      325.9      322.4      318.9      318.9      318.5      306.5      308.1      310.6
     313.4      317.9      325.5      330.4      333.0      337.5      346.5      358.9      370.8      380.8
     389.1      395.3      408.7      428.5      473.4      547.1      622.9      691.7      729.2      705.7
     671.9      639.4      607.6      574.7      541.8      511.8      482.0      447.1      414.7      384.2
     360.8      342.8      335.2
     174.2      174.4      179.5      184.0      188.9      196.5      203.4      210.3      218.3      224.8
     231.8      237.3      242.8      250.1      255.2      260.1      264.2      265.7      270.6      272.6
     274.2      275.7      274.6      275.7      275.7      274.2      272.2      270.1      267.1      263.6
     258.7      256.3      252.2      246.3      244.6      243.2      242.8      224.8      223.8      228.3
     236.7      242.8      247.7      255.2      263.6      272.6      286.1      296.1      311.0      332.0
     361.4      424.7      494.9      563.7      624.9      640.8      625.9      608.0      592.0      573.7
     554.3      532.2      512.4      494.5      479.0      455.1      429.2      405.3      385.7      366.9
     352.8      343.4      335.2
     174.2      175.0      176.5      177.5      179.5      180.9      184.0      186.5      186.9      189.3
     190.9      193.4      194.8      196.5      196.9      195.4      195.4      196.9      195.4      193.0
     193.0      190.3      187.9      185.4      180.9      176.5      174.0      169.5      165.0      158.1
     152.6      149.1      143.6      138.1      135.0      132.6      131.5      107.3      112.8      117.7
     123.2      127.7      134.0      144.0      172.4      219.3      267.7      308.5      326.5      342.0
     352.8      366.3      375.9      383.2      390.2      394.7      400.8      402.6      403.2      399.1
     395.7      390.2      384.9      379.8      375.9      369.8      361.8      357.9      351.8      348.9
     344.4      340.4      335.2
     174.2      171.8      171.5      172.0      170.7      169.2      168.5      166.4      163.2      161.2
     159.7      155.7      152.3      148.5      144.3      141.3      136.3      131.6      126.0      120.4
     115.9      110.4      103.4       98.5       91.0       85.2       78.4       72.6       66.1       58.4
      51.8       45.4       39.9       32.4       29.7       26.9       26.7       33.7       34.7       37.8
      41.4       49.9       62.0       76.8       91.0      103.5      118.7      135.8      153.5      172.7
     187.7      204.6      217.6      232.1      244.0      255.8      266.7      276.4      286.9      294.0
     302.3      308.5      314.4      319.0      323.4      326.0      328.7      331.2      331.4      331.9
     332.9      333.4      335.2
     174.2      172.4      172.0      168.5      168.5      167.1      165.0      163.0      160.5      156.0
     155.0      150.9      147.5      142.2      137.1      134.0      129.7      122.6      118.7      113.6
     108.3      102.8       95.2       90.3       82.8       76.8       71.7       63.8       57.4       50.9
      44.8       39.5       33.0       28.5       23.4       23.0       21.9       28.9       34.0       38.9
      44.8       53.4       62.8       67.2       67.9       68.3       71.3       75.8       78.3       90.3
     116.2      153.0      192.0      226.9      256.7      287.1      303.0      312.0      319.9      324.4
     328.9      329.5      331.4      334.8      335.9      337.9      336.9      338.3      336.5      338.9
     338.3      336.9      335.2
     174.2      172.4      172.4      170.9      168.9      167.1      164.0      161.6      158.5      153.6
     150.9      145.0      140.5      137.7      133.2      127.1      122.6      116.6      111.1      106.2
     100.7       95.2       88.3       83.2       74.8       70.3       62.3       57.4       50.9       43.4
      37.9       30.9       26.4       20.5       17.4       15.0       14.0       20.9       27.0       31.9
      38.5       43.4       53.0       62.8       73.8       80.3       87.7       94.8      101.1      102.8
     106.2      104.6      108.3      111.1      114.2      116.2      118.7      141.1      190.3      245.2
     296.1      331.0      365.9      373.2      370.4      364.2      358.9      353.4      346.9      344.4
     338.3      337.5      335.2
     174.2      174.4      171.6      170.5      169.9      165.4      164.0      159.9      154.6      151.5
     146.0      140.5      135.0      131.5      126.6      119.7      114.2      109.7      104.2       98.3
      90.3       84.8       79.3       72.8       67.9       60.9       54.8       48.5       41.9       34.0
      28.5       21.5       16.0       12.5        7.4        7.0        5.6       11.9       17.0       21.9
      28.9       34.0       40.9       47.4       56.8       67.9       78.3       87.3       93.2      101.7
     107.3      112.8      114.6      117.1      117.1      117.7      121.5      124.6      125.2      126.6
     146.6      203.8      272.6      325.9      368.3      381.8      373.2      364.2      355.3      347.3
     337.9      333.0      335.2
     174.2      172.0      169.9      168.5      166.4      163.6      159.9      156.0      151.5      145.6
     142.2      136.0      131.5      125.6      120.1      114.6      109.1      103.8       97.7       91.3
      84.2       78.7       72.8       66.8       58.9       53.0       46.4       39.5       33.0       27.4
      20.9       16.0       10.1        6.0        2.5        0.5        0.5        5.6       10.5       16.0
      21.5       27.0       31.9       38.9       44.8       56.8       68.3       80.3       87.7       95.6
     102.2      109.1      113.6      116.2      118.7      118.7      118.7      123.6      126.0      127.7
     127.1      149.5      218.3      286.1      340.0      380.8      379.8      370.8      359.8      348.9
     340.4      333.4      335.2
     174.2      174.4      171.6      170.5      169.9      165.4      164.0      159.9      154.6      151.5
     146.0      140.5      135.0      131.5      126.6      119.7      114.2      109.7      104.2       98.3
      90.3       84.8       79.3       72.8       67.9       60.9       54.8       48.5       41.9       34.0
      28.5       21.5       16.0       12.5        7.4        7.0        5.6       11.9       17.0       21.9
      28.9       34.0       40.9       47.4       56.8       67.9       78.3       87.3       93.2      101.7
     107.3      112.8      114.6      117.1      117.1      117.7      121.5      124.6      125.2      126.6
     146.6      203.8      272.6      325.9      368.3      381.8      373.2      364.2      355.3      347.3
     337.9      333.0      335.2
     174.2      172.4      172.4      170.9      168.9      167.1      164.0      161.6      158.5      153.6
     150.9      145.0      140.5      137.7      133.2      127.1      122.6      116.6      111.1      106.2
     100.7       95.2       88.3       83.2       74.8       70.3       62.3       57.4       50.9       43.4
      37.9       30.9       26.4       20.5       17.4       15.0       14.0       20.9       27.0       31.9
      38.5       43.4       53.0       62.8       73.8       80.3       87.7       94.8      101.1      102.8
     106.2      104.6      108.3      111.1      114.2      116.2      118.7      141.1      190.3      245.2
     296.1      331.0      365.9      373.2      370.4      364.2      358.9      353.4      346.9      344.4
     338.3      337.5      335.2
     174.2      172.4      172.0      168.5      168.5      167.1      165.0      163.0      160.5      156.0
     155.0      150.9      147.5      142.2      137.1      134.0      129.7      122.6      118.7      113.6
     108.3      102.8       95.2       90.3       82.8       76.8       71.7       63.8       57.4       50.9
      44.8       39.5       33.0       28.5       23.4       23.0       21.9       28.9       34.0       38.9
      44.8       53.4       62.8       67.2       67.9       68.3       71.3       75.8       78.3       90.3
     116.2      153.0      192.0      226.9      256.7      287.1      303.0      312.0      319.9      324.4
     328.9      329.5      331.4      334.8      335.9      337.9      336.9      338.3      336.5      338.9
     338.3      336.9      335.2
     174.2      171.8      171.5      172.0      170.7      169.2      168.5      166.4      163.2      161.2
     159.7      155.7      152.3      148.5      144.3      141.3      136.3      131.6      126.0      120.4
     115.9      110.4      103.4       98.5       91.0       85.2       78.4       72.6       66.1       58.4
      51.8       45.4       39.9       32.4       29.7       26.9       26.7       33.7       34.7       37.8
      41.4       49.9       62.0       76.8       91.0      103.5      118.7      135.8      153.5      172.7
     187.7      204.6      217.6      232.1      244.0      255.8      266.7      276.4      286.9      294.0
     302.3      308.5      314.4      319.0      323.4      326.0      328.7      331.2      331.4      331.9
     332.9      333.4      335.2
